Timestamp,Ch1,Ch2,Ch3,Ch4,Ch5,Ch6,Ch7,Ch8
2025-09-03 13:05:31.559,-815895,-1823446,-1831275,-7006110,2,2,2,2
2025-09-03 13:05:31.559,-799510,-1806995,-1831274,-7006110,2,2,2,2
2025-09-03 13:05:31.559,-815905,-1807075,-1831291,-7006188,2,2,2,2
2025-09-03 13:05:31.559,-815984,-1823468,-1831303,-2803705,2,2,2,2
2025-09-03 13:05:31.559,-815985,-1807083,-1831364,-7006199,2,2,2,2
2025-09-03 13:05:31.560,-815978,-1807077,-1831232,-4909043,2,2,2,2
2025-09-03 13:05:31.560,-815984,-1807082,-1831304,-7006197,2,2,2,2
2025-09-03 13:05:31.560,-816065,-1807096,-1831323,-7006212,2,2,2,2
2025-09-03 13:05:31.560,-816009,-1823484,-1831394,-2803720,2,2,2,2
2025-09-03 13:05:31.560,-816020,-1823238,-1831409,-2803735,2,2,2,2
2025-09-03 13:05:31.560,-799677,-1806866,-1831418,-7006242,2,2,2,2
2025-09-03 13:05:31.560,-816100,-1806872,-3928578,-7006280,2,2,2,2
2025-09-03 13:05:31.560,-816103,-1806876,-3928584,-7006321,2,2,2,2
2025-09-03 13:05:31.560,-816120,-1806888,-1831449,-7006401,2,2,2,2
2025-09-03 13:05:31.560,-815887,-1806973,-1831467,-7006356,2,2,2,2
2025-09-03 13:05:31.561,-799553,-1806989,-1831546,-7006368,2,2,2,2
2025-09-03 13:05:31.561,-799566,-1806999,-1831562,-7006444,2,2,2,2
2025-09-03 13:05:31.561,-815990,-1807072,-1831570,-7006451,2,2,2,2
2025-09-03 13:05:31.561,-816014,-1823479,-1831654,-2811910,2,2,2,2
2025-09-03 13:05:31.562,-816014,-1807097,-1831654,-7006217,2,2,2,2
2025-09-03 13:05:31.562,-816016,-1807099,-1831655,-7006221,2,2,2,2
2025-09-03 13:05:31.562,-816091,-1807107,-1831661,-7006225,2,2,2,2
2025-09-03 13:05:31.562,-799716,-1807113,-1831666,-7006227,2,2,2,2
2025-09-03 13:05:31.563,-799641,-1807098,-1831584,-7006215,2,2,2,2
2025-09-03 13:05:31.563,-816081,-1807086,-1831641,-7006463,2,2,2,2
2025-09-03 13:05:31.563,-816012,-1823465,-1831575,-7006463,2,2,2,2
2025-09-03 13:05:31.563,-816086,-1807091,-1831614,-7006216,2,2,2,2
2025-09-03 13:05:31.564,-816095,-1807100,-1831619,-7006222,2,2,2,2
2025-09-03 13:05:31.564,-816032,-1823489,-1831657,-2803728,2,2,2,2
2025-09-03 13:05:31.564,-799726,-1807116,-1831671,-7006235,2,2,2,2
2025-09-03 13:05:31.565,-799738,-1807126,-1831680,-7006309,2,2,2,2
2025-09-03 13:05:31.565,-816117,-1807123,-1831676,-7006274,2,2,2,2
2025-09-03 13:05:31.565,-816097,-1807103,-1831657,-7006224,2,2,2,2
2025-09-03 13:05:31.565,-816028,-1823477,-1831649,-2803720,2,2,2,2
2025-09-03 13:05:31.566,-816018,-1807082,-1831641,-7006464,2,2,2,2
2025-09-03 13:05:31.566,-799615,-1807001,-1831561,-7006445,2,2,2,2
2025-09-03 13:05:31.566,-815993,-1815189,-1831622,-4909284,2,2,2,2
2025-09-03 13:05:31.566,-815999,-1807063,-3928711,-7006404,2,2,2,2
2025-09-03 13:05:31.567,-815930,-3904139,-1831486,-7006366,2,2,2,2
2025-09-03 13:05:31.567,-815982,-1823355,-1831537,-2803858,2,2,2,2
2025-09-03 13:05:31.567,-799554,-1806960,-1831527,-7006406,2,2,2,2
2025-09-03 13:05:31.567,-815973,-1815155,-1831468,-4909190,2,2,2,2
2025-09-03 13:05:31.568,-815979,-1806907,-1831539,-7006410,2,2,2,2
2025-09-03 13:05:31.568,-815910,-3904120,-1831471,-7006341,2,2,2,2
2025-09-03 13:05:31.568,-815976,-1823351,-1831538,-2812033,2,2,2,2
2025-09-03 13:05:31.568,-815973,-1815150,-1831472,-4909177,2,2,2,2
2025-09-03 13:05:31.569,-815902,-1815142,-1831465,-2812018,2,2,2,2
2025-09-03 13:05:31.569,-815897,-1806884,-3928676,-7006254,2,2,2,2
2025-09-03 13:05:31.569,-815891,-3904030,-1831486,-7006313,2,2,2,2
2025-09-03 13:05:31.569,-799495,-1806866,-1831442,-7006232,2,2,2,2
2025-09-03 13:05:31.570,-815875,-1806856,-1831437,-7006225,2,2,2,2
2025-09-03 13:05:31.570,-799743,-1806853,-1831433,-7006224,2,2,2,2
2025-09-03 13:05:31.570,-816120,-1823488,-1831423,-2803722,2,2,2,2
2025-09-03 13:05:31.571,-816102,-1807091,-1831405,-7006202,2,2,2,2
2025-09-03 13:05:31.571,-816025,-1823460,-1831327,-7006189,2,2,2,2
2025-09-03 13:05:31.571,-816002,-1807053,-1831306,-7006134,2,2,2,2
2025-09-03 13:05:31.571,-815922,-1806973,-1831289,-7006085,2,2,2,2
2025-09-03 13:05:31.572,-815977,-1823347,-1831281,-2803578,2,2,2,2
2025-09-03 13:05:31.572,-799588,-1806953,-1831275,-7006004,2,2,2,2
2025-09-03 13:05:31.572,-815974,-1806952,-1831218,-7006071,2,2,2,2
2025-09-03 13:05:31.572,-815984,-1815150,-1831229,-4908932,2,2,2,2
2025-09-03 13:05:31.573,-816008,-1807043,-3928466,-7006136,2,2,2,2
2025-09-03 13:05:31.573,-799730,-1807076,-1831410,-7006201,2,2,2,2
2025-09-03 13:05:31.573,-799743,-1807096,-1831431,-7006216,2,2,2,2
2025-09-03 13:05:31.574,-815892,-1815052,-1831450,-4909085,2,2,2,2
2025-09-03 13:05:31.574,-815973,-1806872,-3928682,-7006279,2,2,2,2
2025-09-03 13:05:31.574,-815975,-1806873,-1831524,-7006246,2,2,2,2
2025-09-03 13:05:31.574,-815980,-1823260,-1831526,-7006316,2,2,2,2
2025-09-03 13:05:31.575,-799594,-1806875,-1831524,-7006250,2,2,2,2
2025-09-03 13:05:31.575,-815982,-1806946,-1831465,-4909165,2,2,2,2
2025-09-03 13:05:31.575,-815933,-3904110,-1831484,-7006330,2,2,2,2
2025-09-03 13:05:31.576,-816069,-3904119,-1831622,-7006340,2,2,2,2
2025-09-03 13:05:31.576,-816005,-1823354,-1831558,-2812036,2,2,2,2
2025-09-03 13:05:31.576,-815995,-1806893,-1831544,-7006326,2,2,2,2
2025-09-03 13:05:31.577,-815885,-1807099,-3928585,-7006212,2,2,2,2
2025-09-03 13:05:31.577,-816101,-3904149,-1831362,-7006111,2,2,2,2
2025-09-03 13:05:31.577,-816084,-1806978,-1831376,-7006089,2,2,2,2
2025-09-03 13:05:31.577,-799685,-1806958,-1831302,-7006072,2,2,2,2
2025-09-03 13:05:31.578,-799691,-1806964,-1831312,-7006080,2,2,2,2
2025-09-03 13:05:31.578,-816028,-1823365,-1831397,-2803597,2,2,2,2
2025-09-03 13:05:31.578,-816097,-1806982,-1831402,-4908944,2,2,2,2
2025-09-03 13:05:31.579,-816024,-1823291,-1831393,-7006087,2,2,2,2
2025-09-03 13:05:31.579,-799667,-1806964,-1831326,-7006081,2,2,2,2
2025-09-03 13:05:31.579,-816068,-1806952,-1831311,-7006069,2,2,2,2
2025-09-03 13:05:31.580,-799617,-1806945,-1831302,-7006001,2,2,2,2
2025-09-03 13:05:31.580,-799615,-1806878,-1831300,-7005998,2,2,2,2
2025-09-03 13:05:31.580,-815984,-1806864,-1831221,-7006049,2,2,2,2
2025-09-03 13:05:31.580,-815977,-1815051,-1831216,-4908827,2,2,2,2
2025-09-03 13:05:31.581,-815979,-1823233,-1831292,-2803480,2,2,2,2
2025-09-03 13:05:31.581,-799606,-1806854,-1831296,-7005982,2,2,2,2
2025-09-03 13:05:31.581,-799691,-1806876,-1831315,-7006067,2,2,2,2
2025-09-03 13:05:31.582,-816026,-1806892,-3928546,-7006083,2,2,2,2
2025-09-03 13:05:31.582,-816027,-1806890,-1831395,-7006016,2,2,2,2
2025-09-03 13:05:31.582,-816103,-3904113,-1831407,-7006087,2,2,2,2
2025-09-03 13:05:31.582,-816117,-1823295,-1831421,-7006101,2,2,2,2
2025-09-03 13:05:31.583,-799737,-1806984,-1831427,-7006170,2,2,2,2
2025-09-03 13:05:31.583,-815874,-1815185,-1831432,-2811808,2,2,2,2
2025-09-03 13:05:31.583,-815879,-1807065,-3928589,-7006184,2,2,2,2
2025-09-03 13:05:31.583,-815881,-1823421,-1831438,-2803693,2,2,2,2
2025-09-03 13:05:31.584,-815900,-1823437,-1831449,-2803709,2,2,2,2
2025-09-03 13:05:31.584,-815989,-1823482,-1831533,-7006223,2,2,2,2
2025-09-03 13:05:31.584,-799682,-1806856,-1831547,-7006238,2,2,2,2
2025-09-03 13:05:31.584,-816022,-1806878,-3928717,-7006257,2,2,2,2
2025-09-03 13:05:31.585,-816099,-1806889,-1831578,-7006269,2,2,2,2
2025-09-03 13:05:31.585,-816111,-1806958,-1831650,-7006339,2,2,2,2
2025-09-03 13:05:31.585,-816103,-1823268,-1831580,-7006335,2,2,2,2
2025-09-03 13:05:31.585,-816028,-1806878,-1831571,-7006328,2,2,2,2
2025-09-03 13:05:31.586,-816084,-1806870,-1831565,-7006321,2,2,2,2
2025-09-03 13:05:31.586,-816008,-1823240,-1831550,-2803743,2,2,2,2
2025-09-03 13:05:31.586,-799613,-1807100,-1831537,-7006231,2,2,2,2
2025-09-03 13:05:31.586,-799613,-1807101,-1831539,-7006232,2,2,2,2
2025-09-03 13:05:31.587,-816008,-1806857,-1831552,-7006306,2,2,2,2
2025-09-03 13:05:31.587,-816081,-1806862,-1831560,-7006314,2,2,2,2
2025-09-03 13:05:31.587,-799645,-1806877,-1831574,-7006263,2,2,2,2
2025-09-03 13:05:31.588,-816106,-1806958,-1831652,-4909188,2,2,2,2
2025-09-03 13:05:31.588,-816116,-1815154,-1831659,-4909195,2,2,2,2
2025-09-03 13:05:31.588,-816115,-1806898,-3928810,-7006342,2,2,2,2
2025-09-03 13:05:31.588,-816105,-1806949,-1831615,-7006329,2,2,2,2
2025-09-03 13:05:31.589,-816032,-1823257,-1831572,-2803824,2,2,2,2
2025-09-03 13:05:31.589,-799717,-1806872,-1831572,-7006252,2,2,2,2
2025-09-03 13:05:31.589,-816099,-1806870,-1831634,-4909165,2,2,2,2
2025-09-03 13:05:31.589,-816108,-1806877,-1831580,-7006328,2,2,2,2
2025-09-03 13:05:31.590,-816109,-1806880,-3928734,-7006266,2,2,2,2
2025-09-03 13:05:31.590,-816102,-3904025,-1831610,-7006329,2,2,2,2
2025-09-03 13:05:31.590,-816032,-1823286,-1831576,-2803828,2,2,2,2
2025-09-03 13:05:31.590,-799712,-1806865,-1831571,-7006313,2,2,2,2
2025-09-03 13:05:31.591,-816105,-1815064,-1831640,-4909167,2,2,2,2
2025-09-03 13:05:31.591,-816108,-1806874,-3928727,-7006285,2,2,2,2
2025-09-03 13:05:31.591,-816109,-3904032,-1831613,-7006318,2,2,2,2
2025-09-03 13:05:31.591,-816108,-1806951,-1831652,-4909168,2,2,2,2
2025-09-03 13:05:31.592,-816104,-1823270,-1831584,-7006315,2,2,2,2
2025-09-03 13:05:31.592,-799680,-1806876,-1831577,-7006306,2,2,2,2
2025-09-03 13:05:31.593,-799725,-1806947,-1831653,-7006252,2,2,2,2
2025-09-03 13:05:31.593,-816123,-3904105,-1831661,-7006324,2,2,2,2
2025-09-03 13:05:31.593,-816136,-1823347,-1831669,-2812030,2,2,2,2
2025-09-03 13:05:31.593,-799797,-1806973,-1831425,-7006412,2,2,2,2
2025-09-03 13:05:31.593,-816154,-3904127,-1831434,-7006354,2,2,2,2
2025-09-03 13:05:31.594,-799760,-1806955,-1831672,-7006271,2,2,2,2
2025-09-03 13:05:31.594,-816151,-1806957,-1831675,-7006340,2,2,2,2
2025-09-03 13:05:31.594,-799764,-1806950,-1831669,-7006337,2,2,2,2
2025-09-03 13:05:31.595,-816133,-1806877,-3928810,-7006326,2,2,2,2
2025-09-03 13:05:31.595,-816121,-1806869,-1831620,-7006315,2,2,2,2
2025-09-03 13:05:31.595,-799745,-1806879,-1831664,-7006259,2,2,2,2
2025-09-03 13:05:31.595,-816135,-1823270,-1831670,-7006329,2,2,2,2
2025-09-03 13:05:31.596,-816120,-1806873,-1831654,-4909164,2,2,2,2
2025-09-03 13:05:31.596,-816102,-1806854,-1831570,-7006265,2,2,2,2
2025-09-03 13:05:31.596,-816118,-1806868,-1831620,-7006312,2,2,2,2
2025-09-03 13:05:31.596,-816137,-1806948,-1831666,-7006328,2,2,2,2
2025-09-03 13:05:31.597,-816150,-1823311,-1831679,-2812036,2,2,2,2
2025-09-03 13:05:31.597,-799807,-1806965,-1831429,-7006411,2,2,2,2
2025-09-03 13:05:31.597,-799773,-1806964,-1831428,-7006348,2,2,2,2
2025-09-03 13:05:31.597,-816152,-1806895,-1831678,-7006403,2,2,2,2
2025-09-03 13:05:31.598,-799816,-1806976,-1831440,-7006420,2,2,2,2
2025-09-03 13:05:31.598,-816229,-1823290,-1831434,-7006352,2,2,2,2
2025-09-03 13:05:31.598,-816158,-1806894,-1831426,-7006340,2,2,2,2
2025-09-03 13:05:31.599,-816227,-1806889,-1831431,-7006406,2,2,2,2
2025-09-03 13:05:31.599,-816174,-3904114,-1831446,-7006354,2,2,2,2
2025-09-03 13:05:31.599,-799865,-1806969,-1831523,-7006431,2,2,2,2
2025-09-03 13:05:31.600,-816246,-1806905,-1831456,-7006397,2,2,2,2
2025-09-03 13:05:31.600,-816250,-1815160,-1831455,-2812060,2,2,2,2
2025-09-03 13:05:31.601,-816252,-1823354,-1831451,-2803867,2,2,2,2
2025-09-03 13:05:31.601,-816246,-1806962,-1831447,-7006358,2,2,2,2
2025-09-03 13:05:31.601,-816241,-1806891,-1831437,-7006349,2,2,2,2
2025-09-03 13:05:31.601,-816238,-1806886,-3928585,-7006345,2,2,2,2
2025-09-03 13:05:31.601,-816241,-1806891,-1831437,-7006412,2,2,2,2
2025-09-03 13:05:31.602,-816253,-1823352,-1831449,-2803868,2,2,2,2
2025-09-03 13:05:31.602,-799877,-1806974,-1831523,-7006431,2,2,2,2
2025-09-03 13:05:31.602,-816260,-1806977,-1831461,-4909216,2,2,2,2
2025-09-03 13:05:31.602,-816272,-1807052,-1831539,-7006408,2,2,2,2
2025-09-03 13:05:31.603,-816342,-1806993,-1831547,-7006446,2,2,2,2
2025-09-03 13:05:31.603,-816267,-1823368,-1831543,-2803942,2,2,2,2
2025-09-03 13:05:31.603,-816253,-1823355,-1831530,-2812058,2,2,2,2
2025-09-03 13:05:31.603,-799815,-1806946,-1831447,-7006412,2,2,2,2
2025-09-03 13:05:31.604,-816138,-1815045,-1831675,-4909167,2,2,2,2
2025-09-03 13:05:31.604,-816117,-1807084,-3928801,-7006228,2,2,2,2
2025-09-03 13:05:31.604,-799729,-1807080,-1831579,-7006222,2,2,2,2
2025-09-03 13:05:31.604,-816122,-1823475,-1831653,-7006234,2,2,2,2
2025-09-03 13:05:31.605,-799745,-1807098,-1831663,-7006239,2,2,2,2
2025-09-03 13:05:31.605,-816119,-1815276,-1831650,-4909071,2,2,2,2
2025-09-03 13:05:31.605,-799718,-1806998,-1831563,-7006205,2,2,2,2
2025-09-03 13:05:31.606,-816075,-3904124,-1831473,-7006180,2,2,2,2
2025-09-03 13:05:31.606,-815997,-1823275,-1831522,-2811798,2,2,2,2
2025-09-03 13:05:31.606,-816000,-1806893,-1831521,-7006131,2,2,2,2
2025-09-03 13:05:31.606,-816013,-1823353,-1831530,-2803614,2,2,2,2
2025-09-03 13:05:31.607,-799616,-1806948,-1831449,-7006151,2,2,2,2
2025-09-03 13:05:31.607,-799621,-1806949,-1831452,-7006152,2,2,2,2
2025-09-03 13:05:31.608,-815997,-1806883,-3928601,-7006082,2,2,2,2
2025-09-03 13:05:31.608,-816067,-1806954,-1831455,-7006084,2,2,2,2
2025-09-03 13:05:31.608,-815990,-1823298,-1831452,-2803578,2,2,2,2
2025-09-03 13:05:31.609,-815989,-1806878,-1831455,-7006072,2,2,2,2
2025-09-03 13:05:31.609,-815992,-1806877,-1831454,-4908920,2,2,2,2
2025-09-03 13:05:31.609,-816002,-1806884,-3928676,-7006078,2,2,2,2
2025-09-03 13:05:31.609,-816015,-1806893,-3928687,-7006152,2,2,2,2
2025-09-03 13:05:31.610,-799639,-1806961,-1831539,-7006159,2,2,2,2
2025-09-03 13:05:31.610,-816029,-1823349,-1831540,-2811787,2,2,2,2
2025-09-03 13:05:31.610,-799669,-1806958,-1831532,-7006148,2,2,2,2
2025-09-03 13:05:31.610,-799693,-1806945,-1831522,-7006077,2,2,2,2
2025-09-03 13:05:31.610,-816011,-1823263,-1831454,-2803581,2,2,2,2
2025-09-03 13:05:31.611,-816079,-3904028,-1831486,-7006084,2,2,2,2
2025-09-03 13:05:31.611,-815994,-1823241,-1831433,-2803570,2,2,2,2
2025-09-03 13:05:31.611,-815895,-1823205,-1831398,-7005964,2,2,2,2
2025-09-03 13:05:31.611,-815877,-1814928,-1831382,-2811893,2,2,2,2
2025-09-03 13:05:31.612,-816120,-1806653,-1831304,-7006182,2,2,2,2
2025-09-03 13:05:31.612,-799744,-1806724,-1831313,-7006184,2,2,2,2
2025-09-03 13:05:31.612,-815894,-1806809,-1831403,-7006204,2,2,2,2
2025-09-03 13:05:31.613,-815971,-1806820,-1831419,-7005953,2,2,2,2
2025-09-03 13:05:31.613,-815902,-1806819,-1831413,-7006205,2,2,2,2
2025-09-03 13:05:31.613,-815899,-3903904,-1831411,-7006204,2,2,2,2
2025-09-03 13:05:31.613,-815876,-1823116,-1831326,-2803691,2,2,2,2
2025-09-03 13:05:31.614,-816116,-1806715,-1831375,-7006111,2,2,2,2
2025-09-03 13:05:31.614,-816115,-1814906,-1831374,-4908956,2,2,2,2
2025-09-03 13:05:31.614,-816124,-1806786,-3928472,-7006146,2,2,2,2
2025-09-03 13:05:31.614,-815879,-1806794,-1831323,-7006188,2,2,2,2
2025-09-03 13:05:31.615,-815891,-1823156,-1831403,-2803704,2,2,2,2
2025-09-03 13:05:31.615,-799519,-1806819,-1831418,-7005953,2,2,2,2
2025-09-03 13:05:31.615,-799555,-1806823,-1831423,-7005958,2,2,2,2
2025-09-03 13:05:31.616,-815893,-1806808,-1831406,-7006204,2,2,2,2
2025-09-03 13:05:31.616,-815905,-3903976,-1831421,-7005959,2,2,2,2
2025-09-03 13:05:31.616,-815974,-1823181,-1831424,-2811657,2,2,2,2
2025-09-03 13:05:31.616,-799605,-1806842,-1831440,-7005976,2,2,2,2
2025-09-03 13:05:31.617,-815994,-1815035,-1831447,-2811745,2,2,2,2
2025-09-03 13:05:31.617,-799595,-1806823,-1831433,-7005971,2,2,2,2
2025-09-03 13:05:31.618,-815975,-1806816,-1831427,-7005964,2,2,2,2
2025-09-03 13:05:31.618,-815982,-1823205,-1831433,-7005966,2,2,2,2
2025-09-03 13:05:31.618,-815981,-1806818,-3928583,-7005962,2,2,2,2
2025-09-03 13:05:31.618,-815901,-1806740,-1831376,-7006198,2,2,2,2
2025-09-03 13:05:31.619,-799503,-1806726,-1831328,-7006185,2,2,2,2
2025-09-03 13:05:31.619,-815885,-1823109,-1831393,-2811879,2,2,2,2
2025-09-03 13:05:31.619,-815878,-1806720,-1831387,-4908956,2,2,2,2
2025-09-03 13:05:31.619,-816116,-1806638,-1831305,-7006089,2,2,2,2
2025-09-03 13:05:31.619,-816113,-3903844,-1831299,-7006084,2,2,2,2
2025-09-03 13:05:31.620,-816095,-3903759,-1831285,-7006065,2,2,2,2
2025-09-03 13:05:31.620,-816007,-1823221,-1831198,-2803481,2,2,2,2
2025-09-03 13:05:31.620,-799626,-1806836,-1831196,-7005974,2,2,2,2
2025-09-03 13:05:31.621,-816027,-1806604,-1831284,-7005997,2,2,2,2
2025-09-03 13:05:31.621,-816098,-1806607,-1831225,-7006068,2,2,2,2
2025-09-03 13:05:31.622,-799730,-1806620,-1831307,-7006080,2,2,2,2
2025-09-03 13:05:31.622,-799738,-1806691,-1831312,-7006091,2,2,2,2
2025-09-03 13:05:31.622,-815885,-1806649,-1831394,-7006178,2,2,2,2
2025-09-03 13:05:31.623,-815973,-1823116,-1831414,-2811894,2,2,2,2
2025-09-03 13:05:31.623,-815985,-1806739,-1831422,-7005954,2,2,2,2
2025-09-03 13:05:31.623,-815985,-1806800,-1831417,-7006205,2,2,2,2
2025-09-03 13:05:31.623,-815932,-1806817,-1831427,-7005961,2,2,2,2
2025-09-03 13:05:31.624,-816003,-1823206,-1831433,-2803470,2,2,2,2
2025-09-03 13:05:31.624,-799618,-1806824,-1831434,-7005965,2,2,2,2
2025-09-03 13:05:31.624,-815934,-1806819,-1831430,-7005964,2,2,2,2
2025-09-03 13:05:31.624,-815983,-1823189,-1831416,-7006203,2,2,2,2
2025-09-03 13:05:31.624,-815907,-1806729,-1831400,-7006191,2,2,2,2
2025-09-03 13:05:31.625,-815905,-1806724,-1831366,-7006189,2,2,2,2
2025-09-03 13:05:31.625,-815895,-1823093,-1831325,-2803614,2,2,2,2
2025-09-03 13:05:31.626,-799490,-1806622,-1831304,-7006154,2,2,2,2
2025-09-03 13:05:31.626,-815873,-1806617,-1831303,-7006087,2,2,2,2
2025-09-03 13:05:31.627,-815876,-1814816,-1831370,-2811783,2,2,2,2
2025-09-03 13:05:31.627,-815873,-1806625,-3928460,-7006147,2,2,2,2
2025-09-03 13:05:31.627,-815877,-1823075,-1831311,-2803588,2,2,2,2
2025-09-03 13:05:31.627,-799491,-1806619,-1831308,-7006014,2,2,2,2
2025-09-03 13:05:31.627,-799489,-1806613,-1831305,-7006010,2,2,2,2
2025-09-03 13:05:31.627,-815879,-1814806,-1831375,-4908924,2,2,2,2
2025-09-03 13:05:31.627,-815900,-1806632,-3928549,-7006096,2,2,2,2
2025-09-03 13:05:31.628,-815969,-1806639,-1831405,-7006170,2,2,2,2
2025-09-03 13:05:31.628,-815972,-1823089,-1831408,-2803611,2,2,2,2
2025-09-03 13:05:31.628,-815984,-1806718,-1831419,-4909030,2,2,2,2
2025-09-03 13:05:31.628,-816004,-1814937,-1831443,-4909052,2,2,2,2
2025-09-03 13:05:31.629,-816097,-1806835,-1831529,-7005972,2,2,2,2
2025-09-03 13:05:31.629,-816093,-3903992,-1831466,-7005974,2,2,2,2
2025-09-03 13:05:31.629,-816031,-1823225,-1831532,-2811673,2,2,2,2
2025-09-03 13:05:31.630,-816032,-1806844,-1831537,-7005981,2,2,2,2
2025-09-03 13:05:31.630,-816115,-1806860,-1831554,-7006062,2,2,2,2
2025-09-03 13:05:31.630,-816139,-3904029,-1831607,-7006078,2,2,2,2
2025-09-03 13:05:31.631,-816138,-1806871,-1831634,-7006074,2,2,2,2
2025-09-03 13:05:31.631,-816142,-1806868,-1831568,-7006073,2,2,2,2
2025-09-03 13:05:31.631,-799755,-1806867,-1831563,-7006067,2,2,2,2
2025-09-03 13:05:31.632,-799841,-1806951,-1831649,-7006150,2,2,2,2
2025-09-03 13:05:31.633,-816168,-1806955,-1831655,-7006092,2,2,2,2
2025-09-03 13:05:31.633,-816236,-1823279,-1831660,-7006096,2,2,2,2
2025-09-03 13:05:31.633,-816236,-1806894,-1831663,-7006096,2,2,2,2
2025-09-03 13:05:31.633,-816238,-1823348,-1831670,-2803603,2,2,2,2
2025-09-03 13:05:31.634,-816233,-1823342,-1831663,-2803595,2,2,2,2
2025-09-03 13:05:31.635,-799772,-1806945,-1831583,-7006009,2,2,2,2
2025-09-03 13:05:31.635,-816141,-1806866,-1831634,-7006057,2,2,2,2
2025-09-03 13:05:31.635,-816130,-1806852,-3928708,-7005981,2,2,2,2
2025-09-03 13:05:31.635,-816123,-1806840,-1831549,-7005977,2,2,2,2
2025-09-03 13:05:31.635,-816136,-1823225,-1831556,-2803487,2,2,2,2
2025-09-03 13:05:31.636,-816140,-1815038,-1831626,-4908899,2,2,2,2
2025-09-03 13:05:31.636,-816155,-1815048,-1831640,-4908907,2,2,2,2
2025-09-03 13:05:31.636,-816155,-1806857,-3928732,-7006029,2,2,2,2
2025-09-03 13:05:31.636,-816145,-3903998,-1831601,-7006049,2,2,2,2
2025-09-03 13:05:31.636,-816147,-1823231,-1831571,-2811747,2,2,2,2
2025-09-03 13:05:31.637,-799761,-1806839,-1831564,-7005982,2,2,2,2
2025-09-03 13:05:31.637,-816133,-1806824,-1831486,-4908818,2,2,2,2
2025-09-03 13:05:31.638,-816127,-1823206,-1831547,-2803473,2,2,2,2
2025-09-03 13:05:31.638,-816133,-3903980,-1831619,-7005972,2,2,2,2
2025-09-03 13:05:31.638,-816128,-1823173,-1831551,-2811662,2,2,2,2
2025-09-03 13:05:31.638,-816124,-1806813,-1831544,-7005957,2,2,2,2
2025-09-03 13:05:31.638,-816117,-1806807,-3928690,-7006206,2,2,2,2
2025-09-03 13:05:31.638,-816110,-1814928,-1831472,-2811893,2,2,2,2
2025-09-03 13:05:31.639,-816122,-1806745,-1831480,-7006206,2,2,2,2
2025-09-03 13:05:31.639,-816138,-1806827,-1831624,-7005972,2,2,2,2
2025-09-03 13:05:31.639,-816134,-1806823,-1831557,-7005973,2,2,2,2
2025-09-03 13:05:31.639,-799740,-1806819,-1831547,-7005965,2,2,2,2
2025-09-03 13:05:31.639,-816139,-1823223,-1831566,-2803477,2,2,2,2
2025-09-03 13:05:31.639,-799806,-1806858,-1831582,-7005990,2,2,2,2
2025-09-03 13:05:31.640,-816239,-1823260,-1831663,-7006074,2,2,2,2
2025-09-03 13:05:31.640,-799870,-1806956,-1831678,-7006089,2,2,2,2
2025-09-03 13:05:31.640,-816335,-1806973,-1831439,-7006107,2,2,2,2
2025-09-03 13:05:31.641,-816334,-3904119,-1831440,-7006105,2,2,2,2
2025-09-03 13:05:31.641,-799888,-1806964,-1831443,-7006169,2,2,2,2
2025-09-03 13:05:31.641,-816279,-1806968,-1831447,-7006108,2,2,2,2
2025-09-03 13:05:31.641,-816280,-1815163,-1831448,-4908952,2,2,2,2
2025-09-03 13:05:31.642,-816334,-1806958,-1831434,-7006090,2,2,2,2
2025-09-03 13:05:31.642,-816238,-1823243,-1831654,-2803561,2,2,2,2
2025-09-03 13:05:31.642,-799761,-1806828,-1831563,-7005963,2,2,2,2
2025-09-03 13:05:31.643,-816147,-1806826,-1831567,-7005963,2,2,2,2
2025-09-03 13:05:31.643,-816144,-1806823,-3928716,-7005959,2,2,2,2
2025-09-03 13:05:31.643,-816129,-1806807,-3928704,-7006197,2,2,2,2
2025-09-03 13:05:31.643,-816113,-3903876,-1831476,-7006182,2,2,2,2
2025-09-03 13:05:31.643,-816027,-1823051,-1831455,-2811789,2,2,2,2
2025-09-03 13:05:31.644,-816006,-1806611,-1831429,-4908916,2,2,2,2
2025-09-03 13:05:31.644,-815988,-1815036,-1831409,-4908900,2,2,2,2
2025-09-03 13:05:31.644,-815983,-1806840,-3928557,-7005983,2,2,2,2
2025-09-03 13:05:31.644,-799587,-1806835,-1831397,-7005976,2,2,2,2
2025-09-03 13:05:31.645,-815975,-1823226,-1831402,-2803553,2,2,2,2
2025-09-03 13:05:31.645,-815984,-1823230,-1831409,-7006059,2,2,2,2
2025-09-03 13:05:31.645,-799546,-1806596,-1831415,-7006064,2,2,2,2
2025-09-03 13:05:31.645,-815996,-1806596,-3928569,-7006065,2,2,2,2
2025-09-03 13:05:31.646,-815996,-1806848,-1831414,-7005993,2,2,2,2
2025-09-03 13:05:31.646,-815917,-1806836,-1831405,-7005981,2,2,2,2
2025-09-03 13:05:31.646,-815997,-1823232,-1831420,-7006063,2,2,2,2
2025-09-03 13:05:31.647,-799628,-1806607,-1831435,-7006074,2,2,2,2
2025-09-03 13:05:31.647,-816087,-1806622,-1831446,-7006088,2,2,2,2
2025-09-03 13:05:31.647,-816022,-1823075,-1831450,-2811787,2,2,2,2
2025-09-03 13:05:31.647,-799644,-1806698,-1831455,-7006159,2,2,2,2
2025-09-03 13:05:31.648,-816021,-1814884,-1831449,-4908935,2,2,2,2
2025-09-03 13:05:31.648,-799694,-1806616,-1831439,-7006077,2,2,2,2
2025-09-03 13:05:31.648,-816079,-1806614,-1831437,-7006073,2,2,2,2
2025-09-03 13:05:31.649,-799673,-1806618,-1831444,-7006015,2,2,2,2
2025-09-03 13:05:31.649,-799717,-1806693,-1831452,-7006153,2,2,2,2
2025-09-03 13:05:31.649,-816031,-1814815,-1831448,-4908929,2,2,2,2
2025-09-03 13:05:31.649,-816028,-1806615,-3928602,-7006078,2,2,2,2
2025-09-03 13:05:31.650,-816111,-3903847,-1831469,-7006092,2,2,2,2
2025-09-03 13:05:31.650,-816127,-1823096,-1831543,-2803606,2,2,2,2
2025-09-03 13:05:31.650,-799739,-1806701,-1831540,-7006160,2,2,2,2
2025-09-03 13:05:31.650,-816113,-1806692,-1831464,-4908934,2,2,2,2
2025-09-03 13:05:31.651,-816029,-1806611,-3928595,-7006002,2,2,2,2
2025-09-03 13:05:31.651,-816105,-1806615,-3928603,-7006009,2,2,2,2
2025-09-03 13:05:31.651,-816111,-3903773,-1831491,-7006075,2,2,2,2
2025-09-03 13:05:31.651,-816119,-1823043,-1831529,-2811775,2,2,2,2
2025-09-03 13:05:31.652,-799748,-1806700,-1831540,-7006088,2,2,2,2
2025-09-03 13:05:31.652,-816137,-1814900,-1831482,-4908941,2,2,2,2
2025-09-03 13:05:31.652,-816137,-1806642,-3928699,-7006093,2,2,2,2
2025-09-03 13:05:31.652,-816123,-3903844,-1831504,-7006082,2,2,2,2
2025-09-03 13:05:31.653,-799692,-1806614,-1831524,-7006005,2,2,2,2
2025-09-03 13:05:31.653,-816103,-1822991,-1831454,-7006064,2,2,2,2
2025-09-03 13:05:31.653,-799682,-1806599,-1831451,-7006059,2,2,2,2
2025-09-03 13:05:31.653,-816097,-1806596,-3928601,-7006025,2,2,2,2
2025-09-03 13:05:31.654,-816027,-1823228,-1831443,-2803555,2,2,2,2
2025-09-03 13:05:31.654,-816084,-3903986,-1831431,-7005978,2,2,2,2
2025-09-03 13:05:31.654,-816010,-1823171,-1831416,-2811658,2,2,2,2
2025-09-03 13:05:31.654,-799605,-1806737,-1831399,-7005944,2,2,2,2
2025-09-03 13:05:31.655,-815988,-1806803,-3928550,-7005943,2,2,2,2
2025-09-03 13:05:31.655,-799612,-1806750,-1831409,-7005952,2,2,2,2
2025-09-03 13:05:31.655,-816008,-1823177,-1831418,-2811659,2,2,2,2
2025-09-03 13:05:31.656,-816000,-1806820,-1831410,-7005958,2,2,2,2
2025-09-03 13:05:31.656,-799541,-1806744,-1831397,-7005949,2,2,2,2
2025-09-03 13:05:31.656,-799586,-1806654,-1831313,-7005934,2,2,2,2
2025-09-03 13:05:31.657,-799542,-1806704,-1831303,-7005921,2,2,2,2
2025-09-03 13:05:31.657,-815886,-1806694,-1831231,-4908693,2,2,2,2
2025-09-03 13:05:31.657,-799738,-1806607,-1831272,-7005821,2,2,2,2
2025-09-03 13:05:31.657,-816118,-1806600,-1831234,-7005819,2,2,2,2
2025-09-03 13:05:31.658,-799740,-1806609,-1831281,-7005890,2,2,2,2
2025-09-03 13:05:31.658,-816118,-1822989,-1831273,-2811513,2,2,2,2
2025-09-03 13:05:31.658,-816127,-1806612,-1831213,-7005823,2,2,2,2
2025-09-03 13:05:31.658,-816125,-1806609,-1831274,-7005819,2,2,2,2
2025-09-03 13:05:31.658,-815874,-1806616,-1831281,-7005822,2,2,2,2
2025-09-03 13:05:31.659,-815888,-3903843,-1831294,-7005836,2,2,2,2
2025-09-03 13:05:31.659,-815899,-1823050,-1831303,-2803348,2,2,2,2
2025-09-03 13:05:31.659,-799563,-1806713,-1831321,-7005923,2,2,2,2
2025-09-03 13:05:31.660,-799682,-1806738,-1831412,-7005947,2,2,2,2
2025-09-03 13:05:31.660,-816027,-1806823,-3928589,-7006002,2,2,2,2
2025-09-03 13:05:31.660,-816102,-3903985,-1831481,-7005984,2,2,2,2
2025-09-03 13:05:31.660,-816095,-3903976,-1831438,-7005975,2,2,2,2
2025-09-03 13:05:31.661,-816021,-1823200,-1831426,-2811659,2,2,2,2
2025-09-03 13:05:31.661,-799665,-1806752,-1831425,-7005961,2,2,2,2
2025-09-03 13:05:31.662,-816092,-3903902,-1831429,-7005962,2,2,2,2
2025-09-03 13:05:31.662,-816106,-1823179,-1831440,-2811670,2,2,2,2
2025-09-03 13:05:31.662,-799689,-1806827,-1831443,-7005973,2,2,2,2
2025-09-03 13:05:31.662,-799711,-1806821,-1831437,-7005962,2,2,2,2
2025-09-03 13:05:31.663,-799620,-1806717,-1831402,-7005924,2,2,2,2
2025-09-03 13:05:31.663,-815998,-1823091,-1831328,-2803354,2,2,2,2
2025-09-03 13:05:31.663,-816009,-1823038,-1831406,-7005925,2,2,2,2
2025-09-03 13:05:31.664,-816077,-1806724,-1831411,-7005931,2,2,2,2
2025-09-03 13:05:31.664,-815972,-1806631,-1831304,-7005759,2,2,2,2
2025-09-03 13:05:31.665,-799591,-1806697,-1831306,-7005891,2,2,2,2
2025-09-03 13:05:31.665,-815976,-1806633,-1831311,-7005829,2,2,2,2
2025-09-03 13:05:31.665,-815971,-1806628,-1831308,-7005820,2,2,2,2
2025-09-03 13:05:31.666,-815895,-1822999,-1831297,-2811504,2,2,2,2
2025-09-03 13:05:31.666,-799504,-1806609,-1831292,-7005739,2,2,2,2
2025-09-03 13:05:31.666,-815894,-1806610,-1831229,-7005809,2,2,2,2
2025-09-03 13:05:31.666,-815897,-1806614,-1831296,-7005811,2,2,2,2
2025-09-03 13:05:31.666,-815896,-1806613,-3928449,-7005810,2,2,2,2
2025-09-03 13:05:31.667,-815972,-1823043,-1831309,-2803329,2,2,2,2
2025-09-03 13:05:31.667,-815985,-1823053,-1831320,-2803339,2,2,2,2
2025-09-03 13:05:31.667,-799637,-1806735,-1831418,-7005933,2,2,2,2
2025-09-03 13:05:31.668,-816112,-1806820,-1831437,-4908802,2,2,2,2
2025-09-03 13:05:31.668,-816132,-1806832,-1831450,-7005969,2,2,2,2
2025-09-03 13:05:31.668,-816144,-1806843,-3928679,-7005980,2,2,2,2
2025-09-03 13:05:31.668,-816142,-3903991,-1831465,-7005976,2,2,2,2
2025-09-03 13:05:31.668,-816146,-1823226,-1831530,-2811671,2,2,2,2
2025-09-03 13:05:31.669,-816150,-1815036,-1831472,-2811673,2,2,2,2
2025-09-03 13:05:31.669,-816155,-1815040,-1831480,-2811680,2,2,2,2
2025-09-03 13:05:31.669,-816159,-1806598,-3928705,-7005996,2,2,2,2
2025-09-03 13:05:31.669,-816170,-3903761,-1831564,-7006070,2,2,2,2
2025-09-03 13:05:31.670,-799824,-1806614,-1831565,-7006012,2,2,2,2
2025-09-03 13:05:31.670,-816236,-1822993,-1831558,-7006068,2,2,2,2
2025-09-03 13:05:31.670,-799803,-1806622,-1831571,-7006077,2,2,2,2
2025-09-03 13:05:31.671,-799892,-1806718,-1831664,-7006171,2,2,2,2
2025-09-03 13:05:31.671,-816349,-1806728,-1831672,-7006112,2,2,2,2
2025-09-03 13:05:31.671,-816361,-1823180,-1831425,-7006182,2,2,2,2
2025-09-03 13:05:31.671,-799933,-1806717,-1831670,-7006106,2,2,2,2
2025-09-03 13:05:31.672,-816333,-1806698,-1831625,-7006092,2,2,2,2
2025-09-03 13:05:31.672,-816257,-1823006,-1831584,-2803587,2,2,2,2
2025-09-03 13:05:31.672,-799850,-1806600,-1831565,-7005997,2,2,2,2
2025-09-03 13:05:31.672,-816225,-1806841,-1831488,-7006051,2,2,2,2
2025-09-03 13:05:31.673,-816154,-1806832,-1831540,-7006010,2,2,2,2
2025-09-03 13:05:31.673,-816145,-1806823,-1831529,-7005966,2,2,2,2
2025-09-03 13:05:31.673,-799773,-1806836,-1831536,-7005973,2,2,2,2
2025-09-03 13:05:31.673,-816231,-1823228,-1831546,-2811680,2,2,2,2
2025-09-03 13:05:31.674,-816255,-1814803,-1831637,-4908919,2,2,2,2
2025-09-03 13:05:31.674,-816282,-1806636,-3928815,-7006092,2,2,2,2
2025-09-03 13:05:31.674,-816366,-1806719,-1831430,-7006112,2,2,2,2
2025-09-03 13:05:31.674,-799999,-1806735,-1831447,-7006193,2,2,2,2
2025-09-03 13:05:31.675,-799749,-1806737,-1831450,-7006197,2,2,2,2
2025-09-03 13:05:31.675,-816132,-1806734,-1831445,-4909041,2,2,2,2
2025-09-03 13:05:31.675,-816375,-1806786,-1831436,-7006154,2,2,2,2
2025-09-03 13:05:31.676,-816362,-1806640,-3928831,-7006172,2,2,2,2
2025-09-03 13:05:31.676,-816357,-3903854,-1831425,-7006107,2,2,2,2
2025-09-03 13:05:31.676,-816368,-1823094,-1831438,-2811876,2,2,2,2
2025-09-03 13:05:31.676,-799992,-1806715,-1831445,-7006185,2,2,2,2
2025-09-03 13:05:31.677,-799986,-1806711,-1831440,-7006178,2,2,2,2
2025-09-03 13:05:31.677,-816369,-1806644,-3928592,-7006145,2,2,2,2
2025-09-03 13:05:31.677,-816363,-3903851,-1831430,-7006108,2,2,2,2
2025-09-03 13:05:31.677,-816280,-1823036,-1831671,-2803595,2,2,2,2
2025-09-03 13:05:31.678,-799885,-1806606,-1831652,-7006010,2,2,2,2
2025-09-03 13:05:31.678,-799872,-1806847,-1831570,-7006059,2,2,2,2
2025-09-03 13:05:31.678,-816180,-1806831,-1831558,-7005978,2,2,2,2
2025-09-03 13:05:31.678,-816175,-3903981,-1831621,-7005971,2,2,2,2
2025-09-03 13:05:31.679,-816247,-1823224,-1831566,-2811675,2,2,2,2
2025-09-03 13:05:31.679,-799868,-1806845,-1831572,-7005983,2,2,2,2
2025-09-03 13:05:31.679,-816254,-1815035,-1831637,-2811678,2,2,2,2
2025-09-03 13:05:31.680,-799887,-1806599,-1831653,-7005997,2,2,2,2
2025-09-03 13:05:31.680,-816269,-1822982,-1831654,-2811752,2,2,2,2
2025-09-03 13:05:31.680,-816250,-1806834,-1831572,-7005974,2,2,2,2
2025-09-03 13:05:31.681,-799757,-1806709,-1831523,-7005921,2,2,2,2
2025-09-03 13:05:31.681,-799759,-1806703,-1831456,-7005923,2,2,2,2
2025-09-03 13:05:31.682,-816139,-1806632,-3928604,-7005881,2,2,2,2
2025-09-03 13:05:31.682,-799758,-1806700,-1831450,-7005848,2,2,2,2
2025-09-03 13:05:31.682,-816133,-1823081,-1831441,-2803350,2,2,2,2
2025-09-03 13:05:31.682,-816142,-1806706,-1831454,-4908703,2,2,2,2
2025-09-03 13:05:31.683,-816140,-1806706,-1831456,-7005854,2,2,2,2
2025-09-03 13:05:31.683,-816225,-1806789,-1831540,-7005902,2,2,2,2
2025-09-03 13:05:31.683,-816181,-1806746,-1831562,-7005952,2,2,2,2
2025-09-03 13:05:31.684,-816245,-1823161,-1831563,-2803454,2,2,2,2
2025-09-03 13:05:31.684,-799854,-1806739,-1831557,-7005945,2,2,2,2
2025-09-03 13:05:31.684,-816252,-1806745,-1831633,-7005958,2,2,2,2
2025-09-03 13:05:31.684,-816275,-1815014,-1831652,-4908825,2,2,2,2
2025-09-03 13:05:31.684,-816339,-3903980,-1831625,-7005983,2,2,2,2
2025-09-03 13:05:31.685,-816334,-3903977,-1831618,-7005984,2,2,2,2
2025-09-03 13:05:31.685,-816264,-1823176,-1831582,-2803485,2,2,2,2
2025-09-03 13:05:31.685,-816264,-1823211,-1831649,-2811673,2,2,2,2
2025-09-03 13:05:31.686,-799949,-1806834,-1831654,-7005980,2,2,2,2
2025-09-03 13:05:31.686,-816287,-1806848,-3928818,-7006026,2,2,2,2
2025-09-03 13:05:31.686,-816375,-1806612,-1831431,-7006078,2,2,2,2
2025-09-03 13:05:31.686,-816377,-3903767,-1831434,-7006080,2,2,2,2
2025-09-03 13:05:31.687,-816371,-1806610,-1831426,-4908919,2,2,2,2
2025-09-03 13:05:31.687,-799942,-1806596,-1831667,-7005989,2,2,2,2
2025-09-03 13:05:31.687,-816278,-1815030,-1831653,-4908820,2,2,2,2
2025-09-03 13:05:31.687,-816255,-1806817,-3928720,-7005950,2,2,2,2
2025-09-03 13:05:31.688,-816238,-1823114,-1831550,-2811630,2,2,2,2
2025-09-03 13:05:31.688,-816163,-1806724,-1831477,-7005926,2,2,2,2
2025-09-03 13:05:31.688,-816150,-1823038,-1831529,-7005852,2,2,2,2
2025-09-03 13:05:31.688,-799769,-1806721,-1831535,-7005855,2,2,2,2
2025-09-03 13:05:31.689,-816226,-1806654,-1831537,-7005922,2,2,2,2
2025-09-03 13:05:31.689,-816159,-1806714,-1831467,-7005853,2,2,2,2
2025-09-03 13:05:31.689,-816153,-1823028,-1831529,-7005844,2,2,2,2
2025-09-03 13:05:31.690,-816144,-1806633,-3928674,-7005834,2,2,2,2
2025-09-03 13:05:31.690,-816121,-1822979,-1831434,-2811501,2,2,2,2
2025-09-03 13:05:31.690,-799722,-1806582,-1831421,-7005726,2,2,2,2
2025-09-03 13:05:31.691,-816100,-1822961,-1831415,-7005717,2,2,2,2
2025-09-03 13:05:31.691,-816098,-1806574,-1831411,-7005716,2,2,2,2
2025-09-03 13:05:31.691,-816088,-1806567,-1831406,-7005709,2,2,2,2
2025-09-03 13:05:31.692,-816090,-3903723,-1831404,-7005714,2,2,2,2
2025-09-03 13:05:31.692,-799626,-1806494,-1831324,-7005698,2,2,2,2
2025-09-03 13:05:31.692,-815995,-1806549,-1831313,-7005942,2,2,2,2
2025-09-03 13:05:31.692,-799549,-1806489,-1831312,-7005942,2,2,2,2
2025-09-03 13:05:31.693,-815934,-1806486,-1831345,-7005937,2,2,2,2
2025-09-03 13:05:31.693,-815996,-1822864,-1831309,-2803440,2,2,2,2
2025-09-03 13:05:31.693,-799615,-1806477,-1831311,-7005937,2,2,2,2
2025-09-03 13:05:31.693,-815997,-1806475,-1831375,-4908780,2,2,2,2
2025-09-03 13:05:31.694,-815981,-1814653,-1831232,-2811548,2,2,2,2
2025-09-03 13:05:31.694,-815890,-1806369,-3928425,-7005893,2,2,2,2
2025-09-03 13:05:31.694,-815888,-3903515,-1831238,-7005828,2,2,2,2
2025-09-03 13:05:31.694,-799510,-1806367,-1831274,-7005899,2,2,2,2
2025-09-03 13:05:31.695,-799545,-1806437,-1831280,-7005902,2,2,2,2
2025-09-03 13:05:31.695,-815882,-1814552,-1831205,-4908674,2,2,2,2
2025-09-03 13:05:31.695,-815876,-1806354,-3928349,-7005814,2,2,2,2
2025-09-03 13:05:31.695,-815896,-3903591,-1831248,-7005834,2,2,2,2
2025-09-03 13:05:31.696,-815916,-1806457,-1831362,-7005851,2,2,2,2
2025-09-03 13:05:31.696,-815989,-1822918,-1831308,-7005925,2,2,2,2
2025-09-03 13:05:31.696,-816010,-1814677,-1831389,-4908796,2,2,2,2
2025-09-03 13:05:31.696,-816098,-1806572,-3928561,-7005711,2,2,2,2
2025-09-03 13:05:31.697,-816108,-1806574,-1831415,-7005715,2,2,2,2
2025-09-03 13:05:31.697,-816106,-3903722,-1831413,-7005715,2,2,2,2
2025-09-03 13:05:31.697,-816102,-1822923,-1831415,-2811413,2,2,2,2
2025-09-03 13:05:31.697,-799679,-1806496,-1831407,-7005711,2,2,2,2
2025-09-03 13:05:31.698,-816123,-3903734,-1831429,-7005726,2,2,2,2
2025-09-03 13:05:31.698,-816119,-1822927,-1831426,-2811416,2,2,2,2
2025-09-03 13:05:31.699,-799723,-1806496,-1831414,-7005707,2,2,2,2
2025-09-03 13:05:31.699,-799713,-1806488,-1831404,-7005698,2,2,2,2
2025-09-03 13:05:31.699,-816118,-1822960,-1831426,-2803220,2,2,2,2
2025-09-03 13:05:31.700,-816129,-1806587,-1831434,-4908576,2,2,2,2
2025-09-03 13:05:31.700,-816141,-1822979,-1831444,-7005803,2,2,2,2
2025-09-03 13:05:31.700,-799770,-1806610,-1831456,-7005813,2,2,2,2
2025-09-03 13:05:31.701,-799881,-1806723,-1831568,-7005922,2,2,2,2
2025-09-03 13:05:31.701,-799892,-1806735,-1831577,-7005931,2,2,2,2
2025-09-03 13:05:31.701,-816279,-1806736,-1831646,-7005933,2,2,2,2
2025-09-03 13:05:31.701,-816284,-1814928,-1831653,-4908786,2,2,2,2
2025-09-03 13:05:31.702,-816341,-3903876,-1831619,-7005932,2,2,2,2
2025-09-03 13:05:31.702,-799882,-1806706,-1831565,-7005913,2,2,2,2
2025-09-03 13:05:31.702,-799869,-1806690,-1831552,-7005894,2,2,2,2
2025-09-03 13:05:31.703,-799803,-1806619,-1831550,-7005825,2,2,2,2
2025-09-03 13:05:31.703,-816242,-1806608,-3928696,-7005816,2,2,2,2
2025-09-03 13:05:31.703,-816162,-3903741,-1831497,-7005796,2,2,2,2
2025-09-03 13:05:31.703,-816153,-3903736,-1831463,-7005727,2,2,2,2
2025-09-03 13:05:31.704,-816150,-1814771,-1831459,-4908570,2,2,2,2
2025-09-03 13:05:31.704,-816232,-1806597,-1831476,-4908651,2,2,2,2
2025-09-03 13:05:31.704,-816246,-1806608,-3928703,-7005810,2,2,2,2
2025-09-03 13:05:31.704,-816257,-1806618,-3928712,-7005757,2,2,2,2
2025-09-03 13:05:31.705,-816326,-1806620,-1831629,-7005827,2,2,2,2
2025-09-03 13:05:31.705,-816267,-1823039,-1831572,-2811527,2,2,2,2
2025-09-03 13:05:31.705,-799888,-1806692,-1831580,-7005903,2,2,2,2
2025-09-03 13:05:31.705,-799941,-1806619,-1831573,-7005831,2,2,2,2
2025-09-03 13:05:31.706,-816260,-1823002,-1831573,-2803335,2,2,2,2
2025-09-03 13:05:31.706,-816337,-3903851,-1831616,-7005850,2,2,2,2
2025-09-03 13:05:31.706,-816356,-1823099,-1831661,-2803435,2,2,2,2
2025-09-03 13:05:31.706,-816372,-1823180,-1831678,-7005945,2,2,2,2
2025-09-03 13:05:31.707,-816370,-1806785,-1831663,-7005930,2,2,2,2
2025-09-03 13:05:31.707,-816364,-1806716,-1831654,-7005926,2,2,2,2
2025-09-03 13:05:31.708,-816363,-1806651,-1831652,-7005925,2,2,2,2
2025-09-03 13:05:31.708,-799986,-1806725,-1831666,-7005937,2,2,2,2
2025-09-03 13:05:31.708,-816151,-1823136,-1831444,-2811666,2,2,2,2
2025-09-03 13:05:31.709,-816145,-1823162,-1831446,-2803467,2,2,2,2
2025-09-03 13:05:31.709,-816135,-1806735,-1831439,-7005955,2,2,2,2
2025-09-03 13:05:31.709,-816384,-1806792,-1831428,-7005944,2,2,2,2
2025-09-03 13:05:31.709,-816377,-1806654,-3928830,-7005901,2,2,2,2
2025-09-03 13:05:31.710,-816373,-1806649,-1831677,-7005928,2,2,2,2
2025-09-03 13:05:31.710,-799990,-1806715,-1831675,-7005926,2,2,2,2
2025-09-03 13:05:31.710,-799992,-1806713,-1831675,-7005929,2,2,2,2
2025-09-03 13:05:31.710,-816129,-1806721,-1831677,-4908783,2,2,2,2
2025-09-03 13:05:31.711,-816134,-1806792,-3928577,-7005944,2,2,2,2
2025-09-03 13:05:31.711,-816383,-1806724,-1831677,-7005934,2,2,2,2
2025-09-03 13:05:31.711,-816377,-3903869,-1831671,-7005927,2,2,2,2
2025-09-03 13:05:31.711,-816382,-1823104,-1831677,-2811627,2,2,2,2
2025-09-03 13:05:31.712,-799998,-1806723,-1831680,-7005932,2,2,2,2
2025-09-03 13:05:31.712,-816132,-1814921,-1831430,-2811632,2,2,2,2
2025-09-03 13:05:31.712,-816145,-1806801,-3928598,-7005947,2,2,2,2
2025-09-03 13:05:31.712,-816160,-3903902,-1831488,-7005959,2,2,2,2
2025-09-03 13:05:31.713,-816235,-1823179,-1831528,-2803469,2,2,2,2
2025-09-03 13:05:31.713,-799824,-1806835,-1831538,-7005975,2,2,2,2
2025-09-03 13:05:31.713,-799791,-1806831,-1831542,-7005974,2,2,2,2
2025-09-03 13:05:31.714,-816176,-1806834,-1831482,-7005973,2,2,2,2
2025-09-03 13:05:31.714,-816167,-1806822,-1831474,-7005962,2,2,2,2
2025-09-03 13:05:31.714,-816147,-1823184,-1831521,-7005943,2,2,2,2
2025-09-03 13:05:31.714,-799999,-1806715,-1831437,-7005926,2,2,2,2
2025-09-03 13:05:31.715,-816367,-1823083,-1831674,-2803351,2,2,2,2
2025-09-03 13:05:31.715,-816368,-1823083,-1831674,-2811542,2,2,2,2
2025-09-03 13:05:31.715,-799986,-1806702,-1831679,-7005913,2,2,2,2
2025-09-03 13:05:31.715,-816359,-1806690,-1831670,-7005837,2,2,2,2
2025-09-03 13:05:31.716,-816281,-1806608,-3928803,-7005821,2,2,2,2
2025-09-03 13:05:31.716,-816364,-1806622,-1831663,-7005835,2,2,2,2
2025-09-03 13:05:31.716,-799751,-1806716,-1831428,-7005920,2,2,2,2
2025-09-03 13:05:31.717,-799745,-1806710,-1831426,-7005853,2,2,2,2
2025-09-03 13:05:31.717,-816383,-1814899,-1831678,-4908697,2,2,2,2
2025-09-03 13:05:31.717,-816141,-1806655,-3928587,-7005893,2,2,2,2
2025-09-03 13:05:31.717,-816166,-1806740,-1831495,-7005949,2,2,2,2
2025-09-03 13:05:31.718,-816257,-1823176,-1831551,-2811668,2,2,2,2
2025-09-03 13:05:31.718,-816256,-1823174,-1831547,-2811663,2,2,2,2
2025-09-03 13:05:31.718,-816252,-1806749,-1831475,-4908806,2,2,2,2
2025-09-03 13:05:31.718,-816259,-1806818,-1831545,-7005961,2,2,2,2
2025-09-03 13:05:31.719,-816267,-1823209,-1831555,-2803470,2,2,2,2
2025-09-03 13:05:31.719,-816326,-3903975,-1831556,-7005963,2,2,2,2
2025-09-03 13:05:31.719,-816270,-1823217,-1831567,-2803477,2,2,2,2
2025-09-03 13:05:31.719,-799882,-1806827,-1831563,-7005968,2,2,2,2
2025-09-03 13:05:31.720,-816190,-1806752,-1831556,-7005953,2,2,2,2
2025-09-03 13:05:31.720,-799850,-1806798,-1831538,-7005930,2,2,2,2
2025-09-03 13:05:31.720,-816159,-1806720,-1831458,-7005849,2,2,2,2
2025-09-03 13:05:31.721,-816151,-1806645,-1831450,-7005841,2,2,2,2
2025-09-03 13:05:31.721,-799757,-1806695,-1831441,-7005832,2,2,2,2
2025-09-03 13:05:31.721,-816367,-1806593,-1831658,-7005734,2,2,2,2
2025-09-03 13:05:31.722,-816367,-1822976,-1831659,-2803232,2,2,2,2
2025-09-03 13:05:31.722,-816287,-1806576,-1831643,-7005713,2,2,2,2
2025-09-03 13:05:31.722,-816266,-1806558,-1831561,-7005951,2,2,2,2
2025-09-03 13:05:31.722,-816184,-1806477,-1831545,-7005936,2,2,2,2
2025-09-03 13:05:31.722,-799857,-1806534,-1831538,-7005927,2,2,2,2
2025-09-03 13:05:31.723,-799852,-1806465,-1831535,-7005920,2,2,2,2
2025-09-03 13:05:31.723,-816239,-1806461,-1831471,-7005922,2,2,2,2
2025-09-03 13:05:31.723,-816256,-1806541,-1831548,-7005935,2,2,2,2
2025-09-03 13:05:31.724,-816272,-1806557,-3928715,-7005951,2,2,2,2
2025-09-03 13:05:31.724,-816355,-1806577,-1831612,-7005715,2,2,2,2
2025-09-03 13:05:31.724,-816373,-1822972,-1831658,-2803232,2,2,2,2
2025-09-03 13:05:31.724,-799990,-1806590,-1831656,-7005729,2,2,2,2
2025-09-03 13:05:31.725,-799950,-1806585,-1831652,-7005724,2,2,2,2
2025-09-03 13:05:31.725,-816355,-1814764,-1831640,-2811405,2,2,2,2
2025-09-03 13:05:31.725,-816273,-1806551,-3928711,-7005946,2,2,2,2
2025-09-03 13:05:31.725,-816273,-1822871,-1831555,-2803447,2,2,2,2
2025-09-03 13:05:31.726,-816266,-1822901,-1831550,-2811636,2,2,2,2
2025-09-03 13:05:31.726,-799884,-1806491,-1831554,-7005945,2,2,2,2
2025-09-03 13:05:31.726,-816269,-1814686,-1831622,-4908794,2,2,2,2
2025-09-03 13:05:31.726,-816269,-1806556,-3928716,-7005947,2,2,2,2
2025-09-03 13:05:31.727,-799878,-1806485,-1831562,-7005943,2,2,2,2
2025-09-03 13:05:31.727,-816332,-1806485,-1831627,-7005943,2,2,2,2
2025-09-03 13:05:31.727,-816276,-1822936,-1831570,-7005947,2,2,2,2
2025-09-03 13:05:31.727,-799966,-1806493,-1831577,-7005701,2,2,2,2
2025-09-03 13:05:31.728,-816355,-1822945,-1831577,-2803207,2,2,2,2
2025-09-03 13:05:31.728,-816358,-1822917,-1831580,-2803208,2,2,2,2
2025-09-03 13:05:31.728,-816363,-3903721,-1831644,-7005706,2,2,2,2
2025-09-03 13:05:31.728,-816367,-1806572,-1831649,-7005710,2,2,2,2
2025-09-03 13:05:31.729,-816366,-1806568,-1831580,-7005705,2,2,2,2
2025-09-03 13:05:31.729,-816362,-1806565,-1831574,-7005704,2,2,2,2
2025-09-03 13:05:31.729,-799973,-1806492,-1831570,-7005951,2,2,2,2
2025-09-03 13:05:31.730,-816269,-1814659,-1831484,-4908772,2,2,2,2
2025-09-03 13:05:31.730,-816255,-1806385,-1831531,-7005845,2,2,2,2
2025-09-03 13:05:31.730,-799797,-1806442,-1831526,-7005834,2,2,2,2
2025-09-03 13:05:31.730,-816173,-1806436,-1831487,-7005825,2,2,2,2
2025-09-03 13:05:31.731,-799853,-1806437,-1831456,-7005759,2,2,2,2
2025-09-03 13:05:31.731,-799858,-1806440,-1831524,-7005892,2,2,2,2
2025-09-03 13:05:31.731,-816251,-1806439,-1831467,-4908679,2,2,2,2
2025-09-03 13:05:31.732,-816142,-3903736,-1831419,-7005721,2,2,2,2
2025-09-03 13:05:31.732,-816135,-1822962,-1831414,-2803219,2,2,2,2
2025-09-03 13:05:31.732,-799750,-1806575,-1831416,-7005713,2,2,2,2
2025-09-03 13:05:31.732,-799743,-1806567,-1831408,-7005706,2,2,2,2
2025-09-03 13:05:31.733,-816128,-1806569,-1831412,-7005708,2,2,2,2
2025-09-03 13:05:31.733,-816142,-1806584,-3928579,-7005722,2,2,2,2
2025-09-03 13:05:31.733,-816165,-3903502,-1831479,-7005809,2,2,2,2
2025-09-03 13:05:31.733,-816321,-1806442,-1831470,-7005837,2,2,2,2
2025-09-03 13:05:31.734,-816279,-1814651,-1831487,-4908771,2,2,2,2
2025-09-03 13:05:31.734,-799977,-1806477,-1831568,-7005943,2,2,2,2
2025-09-03 13:05:31.734,-816373,-1806552,-3928730,-7005952,2,2,2,2
2025-09-03 13:05:31.734,-816375,-1806553,-1831581,-7005949,2,2,2,2
2025-09-03 13:05:31.735,-816369,-1806485,-1831641,-7005943,2,2,2,2
2025-09-03 13:05:31.735,-816375,-1822944,-1831584,-7005951,2,2,2,2
2025-09-03 13:05:31.735,-799999,-1806569,-1831658,-7005702,2,2,2,2
2025-09-03 13:05:31.735,-816135,-1806575,-1831664,-7005708,2,2,2,2
2025-09-03 13:05:31.736,-816129,-1822919,-1831657,-2803456,2,2,2,2
2025-09-03 13:05:31.736,-816372,-3903639,-1831641,-7005937,2,2,2,2
2025-09-03 13:05:31.736,-816353,-1822846,-1831553,-2811548,2,2,2,2
2025-09-03 13:05:31.736,-816355,-1806391,-1831552,-7005847,2,2,2,2
2025-09-03 13:05:31.737,-799762,-1806569,-1831668,-7005702,2,2,2,2
2025-09-03 13:05:31.737,-799768,-1806574,-1831680,-7005706,2,2,2,2
2025-09-03 13:05:31.738,-816160,-1806581,-1831433,-7005709,2,2,2,2
2025-09-03 13:05:31.738,-816230,-1806582,-3928587,-7005711,2,2,2,2
2025-09-03 13:05:31.738,-816152,-1806568,-1831676,-7005699,2,2,2,2
2025-09-03 13:05:31.738,-816144,-1822880,-1831668,-2803451,2,2,2,2
2025-09-03 13:05:31.739,-816157,-1822923,-1831430,-2811400,2,2,2,2
2025-09-03 13:05:31.739,-816229,-1806578,-1831437,-4908562,2,2,2,2
2025-09-03 13:05:31.739,-816150,-1806561,-1831679,-7005700,2,2,2,2
2025-09-03 13:05:31.739,-816148,-1806561,-3928831,-7005699,2,2,2,2
2025-09-03 13:05:31.740,-799771,-1806565,-1831428,-7005699,2,2,2,2
2025-09-03 13:05:31.740,-799762,-1806492,-1831673,-7005943,2,2,2,2
2025-09-03 13:05:31.740,-799757,-1806485,-1831663,-7005934,2,2,2,2
2025-09-03 13:05:31.740,-816139,-1814676,-1831663,-4908784,2,2,2,2
2025-09-03 13:05:31.741,-816139,-1806544,-3928816,-7005942,2,2,2,2
2025-09-03 13:05:31.741,-816134,-1806540,-1831662,-7005941,2,2,2,2
2025-09-03 13:05:31.741,-816378,-1806466,-1831650,-7005930,2,2,2,2
2025-09-03 13:05:31.741,-816376,-1822913,-1831584,-7005925,2,2,2,2
2025-09-03 13:05:31.742,-816369,-1814645,-1831637,-4908695,2,2,2,2
2025-09-03 13:05:31.742,-816372,-1806395,-1831575,-7005911,2,2,2,2
2025-09-03 13:05:31.742,-816376,-3903614,-1831640,-7005848,2,2,2,2
2025-09-03 13:05:31.743,-816384,-1806467,-1831645,-7005855,2,2,2,2
2025-09-03 13:05:31.743,-816131,-1806530,-1831581,-7005856,2,2,2,2
2025-09-03 13:05:31.743,-816145,-1806485,-1831663,-7005940,2,2,2,2
2025-09-03 13:05:31.744,-799793,-1806491,-1831670,-7005943,2,2,2,2
2025-09-03 13:05:31.744,-816150,-1806496,-1831677,-7005948,2,2,2,2
2025-09-03 13:05:31.744,-816159,-1806572,-1831438,-7005701,2,2,2,2
2025-09-03 13:05:31.744,-799786,-1806581,-1831448,-7005714,2,2,2,2
2025-09-03 13:05:31.745,-816155,-1822947,-1831435,-2803203,2,2,2,2
2025-09-03 13:05:31.745,-816142,-1822867,-1831675,-2803445,2,2,2,2
2025-09-03 13:05:31.745,-799762,-1806489,-1831678,-7005944,2,2,2,2
2025-09-03 13:05:31.745,-816147,-1806487,-1831680,-4908790,2,2,2,2
2025-09-03 13:05:31.746,-816141,-1806544,-3928827,-7005936,2,2,2,2
2025-09-03 13:05:31.746,-816131,-1806469,-1831662,-7005927,2,2,2,2
2025-09-03 13:05:31.746,-816378,-1822842,-1831652,-2803353,2,2,2,2
2025-09-03 13:05:31.746,-799994,-1806455,-1831649,-7005911,2,2,2,2
2025-09-03 13:05:31.747,-816379,-1814651,-1831644,-4908697,2,2,2,2
2025-09-03 13:05:31.747,-816140,-1814668,-1831659,-4908776,2,2,2,2
2025-09-03 13:05:31.747,-816231,-1806563,-3928584,-7005701,2,2,2,2
2025-09-03 13:05:31.747,-816185,-3903729,-1831480,-7005716,2,2,2,2
2025-09-03 13:05:31.748,-816251,-1822960,-1831450,-7005714,2,2,2,2
2025-09-03 13:05:31.748,-816244,-1822948,-1831440,-7005704,2,2,2,2
2025-09-03 13:05:31.748,-816246,-1814758,-1831440,-4908552,2,2,2,2
2025-09-03 13:05:31.748,-816260,-1806582,-3928607,-7005752,2,2,2,2
2025-09-03 13:05:31.749,-816355,-1823027,-1831546,-2803316,2,2,2,2
2025-09-03 13:05:31.749,-816385,-3903856,-1831641,-7005841,2,2,2,2
2025-09-03 13:05:31.749,-816389,-1823097,-1831653,-2811542,2,2,2,2
2025-09-03 13:05:31.749,-800009,-1806718,-1831655,-7005912,2,2,2,2
2025-09-03 13:05:31.750,-816390,-1806716,-1831624,-7005846,2,2,2,2
2025-09-03 13:05:31.750,-816390,-1806654,-3928803,-7005909,2,2,2,2
2025-09-03 13:05:31.750,-816379,-3903860,-1831612,-7005841,2,2,2,2
2025-09-03 13:05:31.750,-816372,-1823048,-1831568,-2811524,2,2,2,2
2025-09-03 13:05:31.751,-816369,-1806632,-1831570,-7005828,2,2,2,2
2025-09-03 13:05:31.751,-800004,-1806711,-1831654,-7005849,2,2,2,2
2025-09-03 13:05:31.751,-800004,-1806709,-1831659,-7005911,2,2,2,2
2025-09-03 13:05:31.752,-816386,-1806710,-1831657,-7005843,2,2,2,2
2025-09-03 13:05:31.752,-816389,-1823033,-1831657,-7005843,2,2,2,2
2025-09-03 13:05:31.752,-799997,-1806706,-1831650,-7005835,2,2,2,2
2025-09-03 13:05:31.752,-816379,-1806702,-1831617,-7005834,2,2,2,2
2025-09-03 13:05:31.753,-799985,-1806689,-1831575,-7005757,2,2,2,2
2025-09-03 13:05:31.753,-799972,-1806607,-1831556,-7005737,2,2,2,2
2025-09-03 13:05:31.753,-816280,-1806593,-1831482,-4908573,2,2,2,2
2025-09-03 13:05:31.753,-816274,-1806585,-1831543,-7005750,2,2,2,2
2025-09-03 13:05:31.754,-816336,-1806575,-1831501,-7005711,2,2,2,2
2025-09-03 13:05:31.754,-816335,-3903724,-1831494,-7005705,2,2,2,2
2025-09-03 13:05:31.754,-799969,-1806591,-1831542,-7005719,2,2,2,2
2025-09-03 13:05:31.755,-799940,-1806595,-1831545,-7005724,2,2,2,2
2025-09-03 13:05:31.755,-799967,-1806590,-1831539,-7005718,2,2,2,2
2025-09-03 13:05:31.755,-816368,-1806602,-3928707,-7005765,2,2,2,2
2025-09-03 13:05:31.755,-816380,-3903763,-1831601,-7005809,2,2,2,2
2025-09-03 13:05:31.755,-816392,-3903774,-1831648,-7005819,2,2,2,2
2025-09-03 13:05:31.756,-816394,-1806692,-1831649,-7005822,2,2,2,2
2025-09-03 13:05:31.757,-800051,-1806694,-1831653,-7005827,2,2,2,2
2025-09-03 13:05:31.757,-816498,-1806653,-3928829,-7005916,2,2,2,2
2025-09-03 13:05:31.757,-816586,-3903892,-1831700,-7005936,2,2,2,2
2025-09-03 13:05:31.757,-816611,-1823176,-1831785,-2811651,2,2,2,2
2025-09-03 13:05:31.757,-800195,-1806820,-1831787,-7005956,2,2,2,2
2025-09-03 13:05:31.757,-800219,-1806746,-1831778,-7005949,2,2,2,2
2025-09-03 13:05:31.758,-800128,-1806713,-1831697,-7005922,2,2,2,2
2025-09-03 13:05:31.758,-816579,-1806719,-1831706,-7005922,2,2,2,2
2025-09-03 13:05:31.758,-816512,-1806714,-1831703,-4908699,2,2,2,2
2025-09-03 13:05:31.759,-816431,-1806700,-1831691,-7005837,2,2,2,2
2025-09-03 13:05:31.759,-816408,-1806614,-1831665,-7005749,2,2,2,2
2025-09-03 13:05:31.759,-800097,-1806624,-1831674,-7005754,2,2,2,2
2025-09-03 13:05:31.760,-816481,-1806627,-1831672,-7005820,2,2,2,2
2025-09-03 13:05:31.760,-816489,-1806634,-1831679,-7005828,2,2,2,2
2025-09-03 13:05:31.760,-816428,-1806702,-1831685,-7005833,2,2,2,2
2025-09-03 13:05:31.760,-816416,-1823078,-1831675,-2811517,2,2,2,2
2025-09-03 13:05:31.761,-800061,-1806622,-1831672,-7005753,2,2,2,2
2025-09-03 13:05:31.761,-816391,-1806600,-1831648,-7005796,2,2,2,2
2025-09-03 13:05:31.761,-816375,-1814776,-1831633,-4908565,2,2,2,2
2025-09-03 13:05:31.761,-816374,-1806583,-3928722,-7005751,2,2,2,2
2025-09-03 13:05:31.762,-816370,-1822963,-1831567,-2803219,2,2,2,2
2025-09-03 13:05:31.762,-816369,-1806577,-1831631,-7005718,2,2,2,2
2025-09-03 13:05:31.762,-799988,-1806575,-1831568,-7005719,2,2,2,2
2025-09-03 13:05:31.762,-799996,-1806583,-1831575,-7005726,2,2,2,2
2025-09-03 13:05:31.763,-816390,-1806596,-1831650,-7005736,2,2,2,2
2025-09-03 13:05:31.763,-816396,-1806599,-1831619,-7005806,2,2,2,2
2025-09-03 13:05:31.763,-816396,-3903753,-1831649,-7005803,2,2,2,2
2025-09-03 13:05:31.763,-816391,-1822978,-1831572,-2811491,2,2,2,2
2025-09-03 13:05:31.764,-816394,-1814787,-1831642,-2811493,2,2,2,2
2025-09-03 13:05:31.764,-816403,-1814794,-1831650,-2811498,2,2,2,2
2025-09-03 13:05:31.764,-816399,-1806598,-3928733,-7005729,2,2,2,2
2025-09-03 13:05:31.764,-800012,-1806592,-1831580,-7005724,2,2,2,2
2025-09-03 13:05:31.765,-800001,-1806580,-1831568,-7005710,2,2,2,2
2025-09-03 13:05:31.765,-816383,-1822956,-1831566,-7005706,2,2,2,2
2025-09-03 13:05:31.765,-800003,-1806577,-1831567,-7005712,2,2,2,2
2025-09-03 13:05:31.766,-816394,-1822928,-1831570,-2803219,2,2,2,2
2025-09-03 13:05:31.766,-816413,-1806593,-1831655,-7005793,2,2,2,2
2025-09-03 13:05:31.766,-816497,-1806617,-1831678,-4908664,2,2,2,2
2025-09-03 13:05:31.766,-816508,-1806633,-1831694,-7005831,2,2,2,2
2025-09-03 13:05:31.767,-816590,-3903870,-1831742,-7005849,2,2,2,2
2025-09-03 13:05:31.767,-816530,-1806789,-1831783,-7005919,2,2,2,2
2025-09-03 13:05:31.767,-800138,-1806720,-1831777,-7005910,2,2,2,2
2025-09-03 13:05:31.767,-816522,-1806719,-1831716,-7005846,2,2,2,2
2025-09-03 13:05:31.768,-800205,-1806717,-1831780,-7005846,2,2,2,2
2025-09-03 13:05:31.768,-816524,-1806651,-3928934,-7005877,2,2,2,2
2025-09-03 13:05:31.768,-816443,-3903848,-1831734,-7005826,2,2,2,2
2025-09-03 13:05:31.768,-816489,-1823029,-1831682,-2803310,2,2,2,2
2025-09-03 13:05:31.769,-816404,-1806591,-1831666,-4908568,2,2,2,2
2025-09-03 13:05:31.769,-816396,-1814769,-1831653,-4908554,2,2,2,2
2025-09-03 13:05:31.769,-816390,-1806565,-3928730,-7005951,2,2,2,2
2025-09-03 13:05:31.769,-816401,-1806569,-1831617,-7005703,2,2,2,2
2025-09-03 13:05:31.770,-816406,-3903721,-1831653,-7005705,2,2,2,2
2025-09-03 13:05:31.770,-816416,-1822961,-1831660,-2811410,2,2,2,2
2025-09-03 13:05:31.770,-800069,-1806576,-1831662,-7005717,2,2,2,2
2025-09-03 13:05:31.770,-816495,-1814776,-1831669,-2811422,2,2,2,2
2025-09-03 13:05:31.771,-800127,-1806601,-1831689,-7005745,2,2,2,2
2025-09-03 13:05:31.771,-816436,-1806586,-1831677,-7005795,2,2,2,2
2025-09-03 13:05:31.771,-800066,-1806575,-1831658,-7005713,2,2,2,2
2025-09-03 13:05:31.772,-816415,-1814764,-1831652,-4908558,2,2,2,2
2025-09-03 13:05:31.772,-800111,-1806584,-1831663,-7005720,2,2,2,2
2025-09-03 13:05:31.772,-816430,-1806585,-1831662,-7005724,2,2,2,2
2025-09-03 13:05:31.773,-816515,-1822985,-1831680,-7005803,2,2,2,2
2025-09-03 13:05:31.773,-816526,-1806609,-1831688,-7005815,2,2,2,2
2025-09-03 13:05:31.773,-816587,-1806604,-1831686,-7005807,2,2,2,2
2025-09-03 13:05:31.773,-816526,-1822992,-1831691,-2803310,2,2,2,2
2025-09-03 13:05:31.774,-800183,-1806615,-1831701,-7005751,2,2,2,2
2025-09-03 13:05:31.774,-816542,-1806616,-1831704,-7005817,2,2,2,2
2025-09-03 13:05:31.774,-816532,-1806608,-1831697,-7005774,2,2,2,2
2025-09-03 13:05:31.774,-816585,-1806602,-1831693,-7005796,2,2,2,2
2025-09-03 13:05:31.775,-816522,-1822991,-1831696,-2803307,2,2,2,2
2025-09-03 13:05:31.775,-816513,-1822985,-1831693,-2803297,2,2,2,2
2025-09-03 13:05:31.775,-800119,-1806590,-1831686,-7005721,2,2,2,2
2025-09-03 13:05:31.775,-816498,-1814774,-1831680,-4908562,2,2,2,2
2025-09-03 13:05:31.776,-816415,-1806564,-1831659,-7005952,2,2,2,2
2025-09-03 13:05:31.776,-816411,-3903718,-1831621,-7005948,2,2,2,2
2025-09-03 13:05:31.776,-816411,-1822915,-1831649,-2803451,2,2,2,2
2025-09-03 13:05:31.776,-800019,-1806490,-1831578,-7005934,2,2,2,2
2025-09-03 13:05:31.777,-816411,-1806564,-1831656,-7005945,2,2,2,2
2025-09-03 13:05:31.777,-816502,-1806592,-3928835,-7005717,2,2,2,2
2025-09-03 13:05:31.777,-816440,-3903749,-1831684,-7005719,2,2,2,2
2025-09-03 13:05:31.778,-816495,-1806588,-1831674,-7005709,2,2,2,2
2025-09-03 13:05:31.778,-816495,-1806582,-1831676,-7005705,2,2,2,2
2025-09-03 13:05:31.778,-816495,-1814768,-1831677,-4908553,2,2,2,2
2025-09-03 13:05:31.778,-816490,-1806566,-3928818,-7005951,2,2,2,2
2025-09-03 13:05:31.779,-816413,-1806484,-1831650,-7005937,2,2,2,2
2025-09-03 13:05:31.779,-816419,-1806483,-1831651,-7005935,2,2,2,2
2025-09-03 13:05:31.779,-816487,-1822935,-1831658,-7005938,2,2,2,2
2025-09-03 13:05:31.779,-800037,-1806486,-1831659,-7005932,2,2,2,2
2025-09-03 13:05:31.780,-816487,-1822876,-1831665,-2803438,2,2,2,2
2025-09-03 13:05:31.780,-816415,-1806549,-1831652,-7005921,2,2,2,2
2025-09-03 13:05:31.780,-816399,-3903624,-1831636,-7005841,2,2,2,2
2025-09-03 13:05:31.780,-816390,-1806468,-1831627,-7005830,2,2,2,2
2025-09-03 13:05:31.781,-816383,-1806456,-1831553,-7005823,2,2,2,2
2025-09-03 13:05:31.781,-816374,-1806448,-1831544,-7005814,2,2,2,2
2025-09-03 13:05:31.781,-816356,-1822817,-1831529,-2811497,2,2,2,2
2025-09-03 13:05:31.781,-799974,-1806365,-1831529,-7005733,2,2,2,2
2025-09-03 13:05:31.782,-816364,-1814557,-1831463,-4908644,2,2,2,2
2025-09-03 13:05:31.782,-816360,-1806359,-1831522,-7005726,2,2,2,2
2025-09-03 13:05:31.782,-799974,-1806353,-1831452,-7005720,2,2,2,2
2025-09-03 13:05:31.782,-816350,-3903493,-1831475,-7005709,2,2,2,2
2025-09-03 13:05:31.783,-799889,-1806578,-1831430,-7005691,2,2,2,2
2025-09-03 13:05:31.783,-816332,-1806573,-1831428,-7005688,2,2,2,2
2025-09-03 13:05:31.783,-816267,-1806572,-1831429,-4908537,2,2,2,2
2025-09-03 13:05:31.783,-816267,-1806571,-3928582,-7005685,2,2,2,2
2025-09-03 13:05:31.784,-816273,-1822957,-1831439,-2803196,2,2,2,2
2025-09-03 13:05:31.784,-816282,-1822962,-1831451,-2803206,2,2,2,2
2025-09-03 13:05:31.784,-799979,-1806339,-1831535,-7005719,2,2,2,2
2025-09-03 13:05:31.784,-800003,-1806362,-1831557,-7005745,2,2,2,2
2025-09-03 13:05:31.785,-816411,-1806386,-3928732,-7005897,2,2,2,2
2025-09-03 13:05:31.785,-816431,-1806468,-1831662,-7005848,2,2,2,2
2025-09-03 13:05:31.785,-816440,-3903628,-1831673,-7005856,2,2,2,2
2025-09-03 13:05:31.785,-816526,-1822912,-1831694,-2803445,2,2,2,2
2025-09-03 13:05:31.786,-816531,-1814756,-1831699,-4908795,2,2,2,2
2025-09-03 13:05:31.786,-816525,-1814686,-1831687,-4908789,2,2,2,2
2025-09-03 13:05:31.786,-816520,-1806550,-3928833,-7005937,2,2,2,2
2025-09-03 13:05:31.787,-816507,-1806537,-1831667,-7005925,2,2,2,2
2025-09-03 13:05:31.787,-816509,-1822921,-1831671,-7005928,2,2,2,2
2025-09-03 13:05:31.788,-800130,-1806479,-1831678,-7005930,2,2,2,2
2025-09-03 13:05:31.788,-800130,-1806481,-1831679,-7005929,2,2,2,2
2025-09-03 13:05:31.788,-816578,-3903621,-1831670,-7005855,2,2,2,2
2025-09-03 13:05:31.788,-816437,-3903605,-1831655,-7005838,2,2,2,2
2025-09-03 13:05:31.788,-816410,-1822779,-1831567,-2811511,2,2,2,2
2025-09-03 13:05:31.788,-800005,-1806341,-1831545,-7005727,2,2,2,2
2025-09-03 13:05:31.789,-799859,-1806449,-1831661,-7005649,2,2,2,2
2025-09-03 13:05:31.789,-816175,-1806447,-1831659,-7005585,2,2,2,2
2025-09-03 13:05:31.790,-799792,-1806449,-1831658,-7005590,2,2,2,2
2025-09-03 13:05:31.790,-816238,-1806387,-3928805,-7005619,2,2,2,2
2025-09-03 13:05:31.790,-799762,-1806360,-1831557,-7005495,2,2,2,2
2025-09-03 13:05:31.791,-816142,-1806353,-1831482,-4908400,2,2,2,2
2025-09-03 13:05:31.791,-816157,-1806368,-1831623,-4908416,2,2,2,2
2025-09-03 13:05:31.791,-816226,-1806379,-1831570,-7005576,2,2,2,2
2025-09-03 13:05:31.791,-816182,-1806462,-1831650,-7005593,2,2,2,2
2025-09-03 13:05:31.792,-799897,-1806488,-1831427,-7005685,2,2,2,2
2025-09-03 13:05:31.792,-816378,-1822965,-1831523,-2803219,2,2,2,2
2025-09-03 13:05:31.792,-800004,-1806589,-1831535,-7005728,2,2,2,2
2025-09-03 13:05:31.792,-816393,-1806592,-1831538,-7005765,2,2,2,2
2025-09-03 13:05:31.793,-816387,-3903739,-1831499,-7005725,2,2,2,2
2025-09-03 13:05:31.793,-816397,-3903492,-1831541,-7005795,2,2,2,2
2025-09-03 13:05:31.793,-816411,-1822771,-1831558,-2803310,2,2,2,2
2025-09-03 13:05:31.793,-800049,-1806347,-1831554,-7005730,2,2,2,2
2025-09-03 13:05:31.794,-816407,-1806348,-3928707,-7005764,2,2,2,2
2025-09-03 13:05:31.794,-816409,-1806352,-1831562,-7005798,2,2,2,2
2025-09-03 13:05:31.794,-816483,-1822778,-1831574,-2803317,2,2,2,2
2025-09-03 13:05:31.795,-800071,-1806367,-1831581,-7005821,2,2,2,2
2025-09-03 13:05:31.795,-800075,-1806439,-1831584,-7005889,2,2,2,2
2025-09-03 13:05:31.795,-816491,-1814627,-1831642,-2811514,2,2,2,2
2025-09-03 13:05:31.795,-816490,-1806368,-3928729,-7005752,2,2,2,2
2025-09-03 13:05:31.796,-816488,-1806358,-1831634,-7005808,2,2,2,2
2025-09-03 13:05:31.796,-816487,-1822734,-1831566,-2811500,2,2,2,2
2025-09-03 13:05:31.796,-800071,-1806353,-1831566,-7005737,2,2,2,2
2025-09-03 13:05:31.796,-816483,-1814540,-1831622,-4908645,2,2,2,2
2025-09-03 13:05:31.797,-800100,-1806347,-1831561,-7005733,2,2,2,2
2025-09-03 13:05:31.797,-800024,-1806591,-1831549,-7005718,2,2,2,2
2025-09-03 13:05:31.797,-816395,-1806577,-1831472,-7005706,2,2,2,2
2025-09-03 13:05:31.797,-816387,-1822950,-1831529,-7005700,2,2,2,2
2025-09-03 13:05:31.798,-816388,-1806566,-1831497,-7005698,2,2,2,2
2025-09-03 13:05:31.798,-816384,-1806562,-1831492,-7005693,2,2,2,2
2025-09-03 13:05:31.798,-816383,-1806559,-1831523,-7005691,2,2,2,2
2025-09-03 13:05:31.798,-816384,-3903714,-1831462,-7005692,2,2,2,2
2025-09-03 13:05:31.799,-816392,-1806570,-1831531,-7005702,2,2,2,2
2025-09-03 13:05:31.799,-816396,-1806577,-1831537,-7005707,2,2,2,2
2025-09-03 13:05:31.799,-816406,-1806585,-1831545,-7005711,2,2,2,2
2025-09-03 13:05:31.799,-816416,-1822722,-1831555,-2811421,2,2,2,2
2025-09-03 13:05:31.800,-800057,-1806587,-1831551,-7005726,2,2,2,2
2025-09-03 13:05:31.800,-816406,-1806587,-1831618,-7005720,2,2,2,2
2025-09-03 13:05:31.800,-816405,-1806581,-1831549,-7005713,2,2,2,2
2025-09-03 13:05:31.800,-800035,-1806592,-1831560,-7005724,2,2,2,2
2025-09-03 13:05:31.801,-816504,-1822771,-1831582,-2803311,2,2,2,2
2025-09-03 13:05:31.801,-816508,-1822774,-1831651,-2803318,2,2,2,2
2025-09-03 13:05:31.801,-800127,-1806357,-1831583,-7005747,2,2,2,2
2025-09-03 13:05:31.801,-816504,-1806343,-1831638,-4908646,2,2,2,2
2025-09-03 13:05:31.802,-816492,-1806585,-1831565,-7005719,2,2,2,2
2025-09-03 13:05:31.802,-816429,-1806590,-1831604,-7005724,2,2,2,2
2025-09-03 13:05:31.802,-816494,-1822722,-1831578,-2803300,2,2,2,2
2025-09-03 13:05:31.802,-816496,-1822729,-1831584,-2811497,2,2,2,2
2025-09-03 13:05:31.803,-816497,-1806348,-1831650,-7005768,2,2,2,2
2025-09-03 13:05:31.803,-816514,-1814554,-1831664,-4908662,2,2,2,2
2025-09-03 13:05:31.803,-816528,-1806373,-3928833,-7005894,2,2,2,2
2025-09-03 13:05:31.803,-816606,-3903602,-1831691,-7005837,2,2,2,2
2025-09-03 13:05:31.804,-816539,-1806449,-1831686,-7005833,2,2,2,2
2025-09-03 13:05:31.804,-800190,-1806451,-1831692,-7005900,2,2,2,2
2025-09-03 13:05:31.804,-816543,-1814640,-1831692,-4908683,2,2,2,2
2025-09-03 13:05:31.805,-800228,-1806450,-1831695,-7005901,2,2,2,2
2025-09-03 13:05:31.805,-816614,-1806451,-1831694,-7005837,2,2,2,2
2025-09-03 13:05:31.805,-816536,-1822756,-1831682,-7005822,2,2,2,2
2025-09-03 13:05:31.805,-800139,-1806356,-1831666,-7005801,2,2,2,2
2025-09-03 13:05:31.806,-816513,-1806340,-1831655,-7005722,2,2,2,2
2025-09-03 13:05:31.806,-816582,-3903495,-1831658,-7005793,2,2,2,2
2025-09-03 13:05:31.806,-816519,-1806345,-1831657,-7005796,2,2,2,2
2025-09-03 13:05:31.807,-800204,-1806347,-1831659,-7005800,2,2,2,2
2025-09-03 13:05:31.807,-816587,-1806342,-1831655,-7005793,2,2,2,2
2025-09-03 13:05:31.807,-816513,-1822969,-1831578,-2803218,2,2,2,2
2025-09-03 13:05:31.808,-816520,-1806591,-1831649,-7005723,2,2,2,2
2025-09-03 13:05:31.808,-816521,-1806589,-1831583,-7005723,2,2,2,2
2025-09-03 13:05:31.808,-816530,-1806342,-3928806,-7005761,2,2,2,2
2025-09-03 13:05:31.808,-816599,-1806343,-1831623,-7005795,2,2,2,2
2025-09-03 13:05:31.809,-816596,-3903494,-1831653,-7005795,2,2,2,2
2025-09-03 13:05:31.809,-800125,-1806578,-1831572,-7005713,2,2,2,2
2025-09-03 13:05:31.809,-816485,-1806488,-1831486,-4908538,2,2,2,2
2025-09-03 13:05:31.809,-816411,-1814669,-1831477,-2811375,2,2,2,2
2025-09-03 13:05:31.810,-816413,-1806540,-3928694,-7005675,2,2,2,2
2025-09-03 13:05:31.810,-816408,-1822852,-1831535,-2803173,2,2,2,2
2025-09-03 13:05:31.810,-800015,-1806458,-1831527,-7005657,2,2,2,2
2025-09-03 13:05:31.810,-800061,-1806470,-1831541,-7005668,2,2,2,2
2025-09-03 13:05:31.811,-800040,-1806484,-1831554,-7005675,2,2,2,2
2025-09-03 13:05:31.811,-816497,-1806563,-3928717,-7005690,2,2,2,2
2025-09-03 13:05:31.811,-800112,-1806568,-1831570,-7005694,2,2,2,2
2025-09-03 13:05:31.811,-816484,-1822906,-1831559,-2803191,2,2,2,2
2025-09-03 13:05:31.812,-816412,-1822926,-1831549,-7005674,2,2,2,2
2025-09-03 13:05:31.812,-816403,-1814658,-1831474,-4908441,2,2,2,2
2025-09-03 13:05:31.812,-816382,-1806371,-1831450,-7005636,2,2,2,2
2025-09-03 13:05:31.813,-799999,-1806440,-1831453,-7005640,2,2,2,2
2025-09-03 13:05:31.813,-816371,-1822778,-1831444,-2811260,2,2,2,2
2025-09-03 13:05:31.813,-799939,-1806345,-1831433,-7005550,2,2,2,2
2025-09-03 13:05:31.813,-816344,-1806331,-1831676,-7005538,2,2,2,2
2025-09-03 13:05:31.814,-816340,-3903488,-1831676,-7005540,2,2,2,2
2025-09-03 13:05:31.814,-799902,-1806345,-1831430,-7005483,2,2,2,2
2025-09-03 13:05:31.814,-816367,-1806359,-1831439,-7005558,2,2,2,2
2025-09-03 13:05:31.814,-816391,-1806384,-1831528,-7005581,2,2,2,2
2025-09-03 13:05:31.815,-816402,-3903611,-1831504,-7005590,2,2,2,2
2025-09-03 13:05:31.815,-816411,-1806468,-1831544,-7005597,2,2,2,2
2025-09-03 13:05:31.815,-816481,-1822857,-1831551,-2803170,2,2,2,2
2025-09-03 13:05:31.815,-800099,-1806474,-1831556,-7005669,2,2,2,2
2025-09-03 13:05:31.816,-816483,-1806540,-3928710,-7005636,2,2,2,2
2025-09-03 13:05:31.816,-816487,-1806546,-1831562,-7005638,2,2,2,2
2025-09-03 13:05:31.816,-816425,-1806482,-1831562,-7005671,2,2,2,2
2025-09-03 13:05:31.816,-816496,-1822870,-1831566,-2803178,2,2,2,2
2025-09-03 13:05:31.817,-800078,-1806486,-1831563,-7005672,2,2,2,2
2025-09-03 13:05:31.817,-800071,-1806478,-1831554,-7005664,2,2,2,2
2025-09-03 13:05:31.817,-816411,-1814657,-1831477,-4908435,2,2,2,2
2025-09-03 13:05:31.817,-816416,-1806466,-1831543,-7005593,2,2,2,2
2025-09-03 13:05:31.818,-816412,-1822840,-1831533,-2803088,2,2,2,2
2025-09-03 13:05:31.818,-816397,-1822794,-1831452,-2803070,2,2,2,2
2025-09-03 13:05:31.818,-800000,-1806365,-1831439,-7005487,2,2,2,2
2025-09-03 13:05:31.818,-816380,-1814555,-1831435,-4908400,2,2,2,2
2025-09-03 13:05:31.819,-816364,-1806349,-1831679,-7005479,2,2,2,2
2025-09-03 13:05:31.819,-816361,-1806345,-1831677,-7005476,2,2,2,2
2025-09-03 13:05:31.819,-816371,-1822772,-1831435,-2803054,2,2,2,2
2025-09-03 13:05:31.819,-799993,-1806361,-1831443,-7005491,2,2,2,2
2025-09-03 13:05:31.820,-816382,-1806357,-3928596,-7005482,2,2,2,2
2025-09-03 13:05:31.820,-816386,-3903514,-1831450,-7005549,2,2,2,2
2025-09-03 13:05:31.821,-816389,-1806363,-1831453,-7005552,2,2,2,2
2025-09-03 13:05:31.821,-800052,-1806439,-1831530,-7005633,2,2,2,2
2025-09-03 13:05:31.821,-800032,-1806446,-1831535,-7005579,2,2,2,2
2025-09-03 13:05:31.821,-816486,-1806382,-3928691,-7005582,2,2,2,2
2025-09-03 13:05:31.822,-816424,-1806447,-1831479,-7005583,2,2,2,2
2025-09-03 13:05:31.822,-816431,-1806452,-1831483,-7005588,2,2,2,2
2025-09-03 13:05:31.822,-816493,-1822773,-1831546,-7005586,2,2,2,2
2025-09-03 13:05:31.822,-800032,-1806435,-1831528,-7005565,2,2,2,2
2025-09-03 13:05:31.823,-816405,-1806361,-1831456,-7005493,2,2,2,2
2025-09-03 13:05:31.823,-816412,-1806368,-1831525,-7005501,2,2,2,2
2025-09-03 13:05:31.823,-816415,-1806368,-1831463,-7005569,2,2,2,2
2025-09-03 13:05:31.823,-816400,-1822739,-1831452,-7005555,2,2,2,2
2025-09-03 13:05:31.824,-816392,-1806345,-1831443,-7005547,2,2,2,2
2025-09-03 13:05:31.824,-816389,-1806338,-1831440,-7005543,2,2,2,2
2025-09-03 13:05:31.824,-816383,-1822716,-1831437,-2811233,2,2,2,2
2025-09-03 13:05:31.824,-800008,-1806340,-1831450,-7005482,2,2,2,2
2025-09-03 13:05:31.825,-816396,-1806340,-1831453,-7005544,2,2,2,2
2025-09-03 13:05:31.825,-816405,-1806351,-1831523,-7005550,2,2,2,2
2025-09-03 13:05:31.825,-800030,-1806359,-1831530,-7005559,2,2,2,2
2025-09-03 13:05:31.825,-816408,-3903510,-1831489,-7005553,2,2,2,2
2025-09-03 13:05:31.826,-800008,-1806348,-1831443,-7005475,2,2,2,2
2025-09-03 13:05:31.826,-800002,-1806341,-1831437,-7005467,2,2,2,2
2025-09-03 13:05:31.826,-816375,-1806333,-1831427,-4908302,2,2,2,2
2025-09-03 13:05:31.826,-816364,-1806321,-3928823,-7005442,2,2,2,2
2025-09-03 13:05:31.827,-816357,-1822667,-1831669,-2803197,2,2,2,2
2025-09-03 13:05:31.827,-816353,-1822690,-1831668,-2803188,2,2,2,2
2025-09-03 13:05:31.827,-799895,-1806235,-1831664,-7005673,2,2,2,2
2025-09-03 13:05:31.827,-799886,-1806223,-1831656,-7005662,2,2,2,2
2025-09-03 13:05:31.828,-816272,-1806284,-3928807,-7005661,2,2,2,2
2025-09-03 13:05:31.828,-816285,-1806290,-3928816,-7005670,2,2,2,2
2025-09-03 13:05:31.828,-816358,-3903382,-1831674,-7005675,2,2,2,2
2025-09-03 13:05:31.828,-816366,-1806238,-1831427,-7005679,2,2,2,2
2025-09-03 13:05:31.829,-816372,-1806308,-1831431,-4908529,2,2,2,2
2025-09-03 13:05:31.829,-816376,-1806308,-1831430,-4908534,2,2,2,2
2025-09-03 13:05:31.829,-816377,-1806308,-1831427,-7005686,2,2,2,2
2025-09-03 13:05:31.830,-799987,-1806238,-1831678,-7005684,2,2,2,2
2025-09-03 13:05:31.830,-816379,-1822691,-1831430,-7005695,2,2,2,2
2025-09-03 13:05:31.830,-800009,-1806319,-1831447,-7005453,2,2,2,2
2025-09-03 13:05:31.831,-816381,-3903463,-1831442,-7005445,2,2,2,2
2025-09-03 13:05:31.831,-816378,-3903462,-1831439,-7005441,2,2,2,2
2025-09-03 13:05:31.831,-816369,-1806236,-1831428,-7005689,2,2,2,2
2025-09-03 13:05:31.831,-816368,-1806296,-1831426,-7005685,2,2,2,2
2025-09-03 13:05:31.832,-816370,-1806296,-3928831,-7005686,2,2,2,2
2025-09-03 13:05:31.832,-816361,-3903369,-1831665,-7005675,2,2,2,2
2025-09-03 13:05:31.832,-816363,-1822596,-1831669,-2803178,2,2,2,2
2025-09-03 13:05:31.832,-816370,-1806218,-1831426,-7005685,2,2,2,2
2025-09-03 13:05:31.833,-799997,-1806231,-1831440,-7005442,2,2,2,2
2025-09-03 13:05:31.833,-800009,-1806240,-1831450,-7005451,2,2,2,2
2025-09-03 13:05:31.833,-816397,-1806310,-1831485,-7005452,2,2,2,2
2025-09-03 13:05:31.833,-816410,-1822706,-1831528,-2802968,2,2,2,2
2025-09-03 13:05:31.834,-816408,-1822703,-1831525,-7005458,2,2,2,2
2025-09-03 13:05:31.834,-816485,-1806332,-1831470,-4908315,2,2,2,2
2025-09-03 13:05:31.834,-816504,-1806352,-1831552,-7005514,2,2,2,2
2025-09-03 13:05:31.834,-816579,-1806362,-1831566,-7005556,2,2,2,2
2025-09-03 13:05:31.835,-816511,-1822772,-1831562,-2811245,2,2,2,2
2025-09-03 13:05:31.835,-816509,-1822771,-1831562,-2811244,2,2,2,2
2025-09-03 13:05:31.835,-800115,-1806346,-1831555,-7005474,2,2,2,2
2025-09-03 13:05:31.835,-816499,-1814533,-1831485,-4908316,2,2,2,2
2025-09-03 13:05:31.836,-816436,-3903496,-1831551,-7005469,2,2,2,2
2025-09-03 13:05:31.836,-816434,-3903494,-1831544,-7005461,2,2,2,2
2025-09-03 13:05:31.836,-816493,-1822721,-1831533,-2802960,2,2,2,2
2025-09-03 13:05:31.836,-800078,-1806342,-1831531,-7005457,2,2,2,2
2025-09-03 13:05:31.837,-816499,-1806349,-1831548,-7005466,2,2,2,2
2025-09-03 13:05:31.837,-816446,-3903510,-1831622,-7005540,2,2,2,2
2025-09-03 13:05:31.838,-800131,-1806363,-1831566,-7005546,2,2,2,2
2025-09-03 13:05:31.838,-816529,-1806376,-1831584,-7005561,2,2,2,2
2025-09-03 13:05:31.838,-816543,-1814643,-1831658,-2811266,2,2,2,2
2025-09-03 13:05:31.838,-816615,-1806390,-3928811,-7005640,2,2,2,2
2025-09-03 13:05:31.839,-816631,-1806466,-1831676,-7005589,2,2,2,2
2025-09-03 13:05:31.839,-816387,-1806472,-1831685,-7005597,2,2,2,2
2025-09-03 13:05:31.839,-816388,-1806535,-1831684,-7005595,2,2,2,2
2025-09-03 13:05:31.839,-800003,-1806471,-1831686,-7005593,2,2,2,2
2025-09-03 13:05:31.840,-800247,-1806458,-1831676,-7005643,2,2,2,2
2025-09-03 13:05:31.840,-800232,-1806444,-1831663,-7005501,2,2,2,2
2025-09-03 13:05:31.840,-816597,-1806362,-1831646,-7005549,2,2,2,2
2025-09-03 13:05:31.840,-816520,-1822728,-1831567,-7005470,2,2,2,2
2025-09-03 13:05:31.841,-816446,-1806331,-1831555,-7005456,2,2,2,2
2025-09-03 13:05:31.841,-816435,-1806320,-1831543,-7005446,2,2,2,2
2025-09-03 13:05:31.841,-816414,-1822620,-1831523,-2803183,2,2,2,2
2025-09-03 13:05:31.841,-816397,-3903371,-1831443,-7005595,2,2,2,2
2025-09-03 13:05:31.842,-816401,-1806280,-1831446,-7005628,2,2,2,2
2025-09-03 13:05:31.842,-816412,-1806285,-1831456,-7005636,2,2,2,2
2025-09-03 13:05:31.842,-816418,-1806230,-1831527,-7005674,2,2,2,2
2025-09-03 13:05:31.843,-816498,-1806306,-1831477,-7005689,2,2,2,2
2025-09-03 13:05:31.843,-800119,-1806308,-1831549,-7005694,2,2,2,2
2025-09-03 13:05:31.843,-816507,-1806313,-1831620,-4908292,2,2,2,2
2025-09-03 13:05:31.843,-800064,-1806321,-1831562,-7005451,2,2,2,2
2025-09-03 13:05:31.844,-816509,-1822708,-1831559,-2802950,2,2,2,2
2025-09-03 13:05:31.844,-816515,-1822712,-1831563,-2802957,2,2,2,2
2025-09-03 13:05:31.844,-800131,-1806330,-1831561,-7005453,2,2,2,2
2025-09-03 13:05:31.844,-800141,-1806337,-1831567,-7005459,2,2,2,2
2025-09-03 13:05:31.845,-816610,-1806354,-1831616,-7005540,2,2,2,2
2025-09-03 13:05:31.845,-816638,-1806381,-3928827,-7005504,2,2,2,2
2025-09-03 13:05:31.845,-816396,-1822839,-1831691,-2803085,2,2,2,2
2025-09-03 13:05:31.845,-800023,-1806469,-1831709,-7005657,2,2,2,2
2025-09-03 13:05:31.846,-816407,-1814663,-1831709,-2811286,2,2,2,2
2025-09-03 13:05:31.846,-816399,-1814654,-1831704,-4908429,2,2,2,2
2025-09-03 13:05:31.846,-816387,-1806382,-3928843,-7005501,2,2,2,2
2025-09-03 13:05:31.846,-816633,-3903588,-1831680,-7005553,2,2,2,2
2025-09-03 13:05:31.847,-800002,-1806445,-1831689,-7005499,2,2,2,2
2025-09-03 13:05:31.847,-800002,-1806445,-1831692,-7005499,2,2,2,2
2025-09-03 13:05:31.847,-816634,-1814631,-1831681,-4908404,2,2,2,2
2025-09-03 13:05:31.848,-816396,-1806452,-1831695,-7005567,2,2,2,2
2025-09-03 13:05:31.848,-816402,-3903610,-1831698,-7005572,2,2,2,2
2025-09-03 13:05:31.848,-816400,-1822778,-1831700,-7005572,2,2,2,2
2025-09-03 13:05:31.848,-816408,-1806399,-1831708,-7005577,2,2,2,2
2025-09-03 13:05:31.849,-816483,-1806537,-1831781,-7005652,2,2,2,2
2025-09-03 13:05:31.849,-816408,-1806400,-1831711,-7005646,2,2,2,2
2025-09-03 13:05:31.849,-800023,-1806464,-1831711,-7005638,2,2,2,2
2025-09-03 13:05:31.849,-816492,-1806478,-1831727,-7005590,2,2,2,2
2025-09-03 13:05:31.850,-816442,-1806489,-1831803,-7005670,2,2,2,2
2025-09-03 13:05:31.850,-800199,-1806565,-1831808,-7005680,2,2,2,2
2025-09-03 13:05:31.850,-800116,-1806479,-1831787,-7005661,2,2,2,2
2025-09-03 13:05:31.851,-816493,-1806533,-1831777,-7005589,2,2,2,2
2025-09-03 13:05:31.851,-816487,-1822777,-1831703,-7005581,2,2,2,2
2025-09-03 13:05:31.851,-800042,-1806456,-1831705,-7005579,2,2,2,2
2025-09-03 13:05:31.851,-816435,-1806465,-1831754,-7005592,2,2,2,2
2025-09-03 13:05:31.852,-816440,-1806470,-1831730,-7005596,2,2,2,2
2025-09-03 13:05:31.852,-800119,-1806472,-1831797,-7005658,2,2,2,2
2025-09-03 13:05:31.852,-800118,-1806469,-1831795,-7005659,2,2,2,2
2025-09-03 13:05:31.852,-816505,-1806534,-1831795,-7005628,2,2,2,2
2025-09-03 13:05:31.853,-816515,-1822862,-1831806,-2803173,2,2,2,2
2025-09-03 13:05:31.853,-816589,-3903640,-1831813,-7005677,2,2,2,2
2025-09-03 13:05:31.853,-816517,-1822862,-1831804,-2803176,2,2,2,2
2025-09-03 13:05:31.853,-800118,-1806461,-1831789,-7005657,2,2,2,2
2025-09-03 13:05:31.854,-816425,-1806449,-1831709,-7005578,2,2,2,2
2025-09-03 13:05:31.854,-816417,-1806441,-1831699,-7005567,2,2,2,2
2025-09-03 13:05:31.854,-816419,-3903596,-1831735,-7005566,2,2,2,2
2025-09-03 13:05:31.854,-816493,-1822835,-1831779,-2803080,2,2,2,2
2025-09-03 13:05:31.855,-816510,-1814655,-1831727,-4908438,2,2,2,2
2025-09-03 13:05:31.855,-816508,-1814657,-1831726,-4908438,2,2,2,2
2025-09-03 13:05:31.855,-816528,-1806550,-1831804,-7005669,2,2,2,2
2025-09-03 13:05:31.856,-800133,-1806474,-1831794,-7005657,2,2,2,2
2025-09-03 13:05:31.856,-816517,-1822853,-1831792,-2811286,2,2,2,2
2025-09-03 13:05:31.856,-800177,-1806481,-1831802,-7005664,2,2,2,2
2025-09-03 13:05:31.856,-816542,-1814682,-1831878,-2811373,2,2,2,2
2025-09-03 13:05:31.857,-816620,-3903719,-1831893,-7005691,2,2,2,2
2025-09-03 13:05:31.857,-800250,-1806580,-1831908,-7005702,2,2,2,2
2025-09-03 13:05:31.857,-816642,-1806586,-1831917,-7005707,2,2,2,2
2025-09-03 13:05:31.857,-800306,-1806345,-1831927,-7005721,2,2,2,2
2025-09-03 13:05:31.858,-800250,-1806578,-1831837,-7005693,2,2,2,2
2025-09-03 13:05:31.858,-816619,-1806563,-1831887,-7005677,2,2,2,2
2025-09-03 13:05:31.859,-816610,-1806555,-3928966,-7005638,2,2,2,2
2025-09-03 13:05:31.859,-816535,-1806548,-1831808,-7005630,2,2,2,2
2025-09-03 13:05:31.859,-816599,-1806484,-1831809,-7005597,2,2,2,2
2025-09-03 13:05:31.859,-816540,-1822868,-1831811,-2803101,2,2,2,2
2025-09-03 13:05:31.860,-816613,-1806561,-1831888,-7005674,2,2,2,2
2025-09-03 13:05:31.860,-816619,-1806566,-1831891,-7005676,2,2,2,2
2025-09-03 13:05:31.860,-816610,-1806558,-1831817,-7005632,2,2,2,2
2025-09-03 13:05:31.860,-816609,-1806494,-1831815,-7005598,2,2,2,2
2025-09-03 13:05:31.861,-816634,-1822962,-1831836,-2803184,2,2,2,2
2025-09-03 13:05:31.861,-816653,-1822724,-1831923,-2803201,2,2,2,2
2025-09-03 13:05:31.861,-800313,-1806352,-1831932,-7005710,2,2,2,2
2025-09-03 13:05:31.861,-816666,-1814544,-1831934,-4908557,2,2,2,2
2025-09-03 13:05:31.862,-816661,-3903497,-1831929,-7005702,2,2,2,2
2025-09-03 13:05:31.862,-816659,-1806343,-1831928,-7005701,2,2,2,2
2025-09-03 13:05:31.862,-816669,-1822734,-1831684,-2803212,2,2,2,2
2025-09-03 13:05:31.862,-800356,-1806362,-1831695,-7005718,2,2,2,2
2025-09-03 13:05:31.863,-816745,-1814549,-1831698,-2811414,2,2,2,2
2025-09-03 13:05:31.863,-816758,-1806366,-3928861,-7005728,2,2,2,2
2025-09-03 13:05:31.863,-816744,-1822738,-1831697,-2803219,2,2,2,2
2025-09-03 13:05:31.864,-800315,-1806337,-1831684,-7005701,2,2,2,2
2025-09-03 13:05:31.864,-800265,-1806574,-1831925,-7005683,2,2,2,2
2025-09-03 13:05:31.864,-816636,-1814687,-1831910,-4908519,2,2,2,2
2025-09-03 13:05:31.864,-816632,-1806552,-3928991,-7005632,2,2,2,2
2025-09-03 13:05:31.865,-816633,-1822901,-1831837,-2803100,2,2,2,2
2025-09-03 13:05:31.865,-816636,-1806493,-1831908,-7005667,2,2,2,2
2025-09-03 13:05:31.865,-816630,-1822938,-1831906,-7005600,2,2,2,2
2025-09-03 13:05:31.865,-816628,-1814679,-1831904,-4908446,2,2,2,2
2025-09-03 13:05:31.866,-816611,-1806531,-1831822,-7005647,2,2,2,2
2025-09-03 13:05:31.866,-816540,-1806390,-1831812,-7005638,2,2,2,2
2025-09-03 13:05:31.866,-816593,-3903595,-1831737,-7005561,2,2,2,2
2025-09-03 13:05:31.866,-816507,-1806358,-1831717,-7005545,2,2,2,2
2025-09-03 13:05:31.867,-816389,-1806305,-1831659,-7005683,2,2,2,2
2025-09-03 13:05:31.867,-816389,-1806308,-3928815,-7005688,2,2,2,2
2025-09-03 13:05:31.867,-816408,-3903477,-1831680,-7005448,2,2,2,2
2025-09-03 13:05:31.868,-816484,-1806334,-1831689,-7005456,2,2,2,2
2025-09-03 13:05:31.868,-816502,-1806348,-1831704,-7005471,2,2,2,2
2025-09-03 13:05:31.868,-800060,-1806349,-1831710,-7005537,2,2,2,2
2025-09-03 13:05:31.869,-816438,-1806344,-1831708,-7005468,2,2,2,2
2025-09-03 13:05:31.869,-816432,-1806335,-1831699,-7005460,2,2,2,2
2025-09-03 13:05:31.869,-816489,-1822713,-1831694,-7005454,2,2,2,2
2025-09-03 13:05:31.869,-816485,-1806323,-3928840,-7005443,2,2,2,2
2025-09-03 13:05:31.870,-816415,-1822700,-1831680,-2803193,2,2,2,2
2025-09-03 13:05:31.870,-816412,-1822692,-1831675,-2803188,2,2,2,2
2025-09-03 13:05:31.870,-800108,-1806325,-1831690,-7005441,2,2,2,2
2025-09-03 13:05:31.870,-800116,-1806334,-1831702,-7005451,2,2,2,2
2025-09-03 13:05:31.871,-816439,-1806336,-1831708,-7005452,2,2,2,2
2025-09-03 13:05:31.871,-816439,-1806330,-1831702,-7005450,2,2,2,2
2025-09-03 13:05:31.871,-816434,-3903473,-1831694,-7005442,2,2,2,2
2025-09-03 13:05:31.871,-816488,-1822661,-1831682,-2803190,2,2,2,2
2025-09-03 13:05:31.872,-816397,-1806224,-1831658,-4908447,2,2,2,2
2025-09-03 13:05:31.872,-816385,-1806210,-1831647,-4908434,2,2,2,2
2025-09-03 13:05:31.872,-816631,-1806137,-3928731,-7005578,2,2,2,2
2025-09-03 13:05:31.872,-816630,-1806137,-1831579,-7005642,2,2,2,2
2025-09-03 13:05:31.873,-800207,-1806193,-1831570,-7005637,2,2,2,2
2025-09-03 13:05:31.873,-800234,-1806186,-1831562,-7005503,2,2,2,2
2025-09-03 13:05:31.873,-800195,-1806178,-1831552,-7005557,2,2,2,2
2025-09-03 13:05:31.874,-816633,-3903349,-1831639,-7005581,2,2,2,2
2025-09-03 13:05:31.874,-816391,-3903362,-1831661,-7005599,2,2,2,2
2025-09-03 13:05:31.874,-816389,-1822592,-1831661,-2811295,2,2,2,2
2025-09-03 13:05:31.874,-816396,-1806282,-1831669,-7005674,2,2,2,2
2025-09-03 13:05:31.875,-816411,-1806289,-3928831,-7005684,2,2,2,2
2025-09-03 13:05:31.875,-816482,-1806295,-3928834,-7005689,2,2,2,2
2025-09-03 13:05:31.875,-800103,-1806236,-1831687,-7005694,2,2,2,2
2025-09-03 13:05:31.875,-816429,-1806307,-1831691,-7005444,2,2,2,2
2025-09-03 13:05:31.876,-800043,-1806239,-1831686,-7005442,2,2,2,2
2025-09-03 13:05:31.876,-800045,-1806238,-1831686,-7005444,2,2,2,2
2025-09-03 13:05:31.876,-816412,-1806223,-1831673,-7005682,2,2,2,2
2025-09-03 13:05:31.876,-816638,-1822584,-1831581,-2803094,2,2,2,2
2025-09-03 13:05:31.877,-816385,-1822523,-1831649,-7005590,2,2,2,2
2025-09-03 13:05:31.877,-816396,-1822658,-1831659,-7005598,2,2,2,2
2025-09-03 13:05:31.877,-816406,-1806281,-1831668,-7005636,2,2,2,2
2025-09-03 13:05:31.877,-816409,-1806220,-1831669,-7005670,2,2,2,2
2025-09-03 13:05:31.878,-800027,-1806219,-1831667,-7005667,2,2,2,2
2025-09-03 13:05:31.878,-800017,-1806207,-1831655,-7005656,2,2,2,2
2025-09-03 13:05:31.878,-800011,-1806201,-1831653,-7005656,2,2,2,2
2025-09-03 13:05:31.878,-816396,-1806200,-1831655,-4908440,2,2,2,2
2025-09-03 13:05:31.879,-816424,-3903379,-1831685,-7005679,2,2,2,2
2025-09-03 13:05:31.879,-816489,-1822643,-1831685,-2803180,2,2,2,2
2025-09-03 13:05:31.879,-800109,-1806231,-1831687,-7005674,2,2,2,2
2025-09-03 13:05:31.880,-816490,-1806293,-3928836,-7005639,2,2,2,2
2025-09-03 13:05:31.880,-816408,-1806139,-1831659,-7005650,2,2,2,2
2025-09-03 13:05:31.880,-816401,-3903350,-1831656,-7005581,2,2,2,2
2025-09-03 13:05:31.881,-800015,-1806194,-1831650,-7005576,2,2,2,2
2025-09-03 13:05:31.881,-800051,-1806199,-1831653,-7005645,2,2,2,2
2025-09-03 13:05:31.881,-816404,-1806202,-1831662,-2811283,2,2,2,2
2025-09-03 13:05:31.881,-816413,-1806275,-3928826,-7005662,2,2,2,2
2025-09-03 13:05:31.882,-816488,-1806223,-1831684,-7005669,2,2,2,2
2025-09-03 13:05:31.882,-816428,-1806227,-1831689,-7005672,2,2,2,2
2025-09-03 13:05:31.882,-816492,-1806288,-1831687,-7005666,2,2,2,2
2025-09-03 13:05:31.882,-800045,-1806226,-1831690,-7005667,2,2,2,2
2025-09-03 13:05:31.883,-800115,-1806231,-1831696,-7005672,2,2,2,2
2025-09-03 13:05:31.883,-800122,-1806302,-1831701,-7005678,2,2,2,2
2025-09-03 13:05:31.883,-816438,-1806234,-1831701,-7005676,2,2,2,2
2025-09-03 13:05:31.883,-816503,-1822683,-1831702,-7005673,2,2,2,2
2025-09-03 13:05:31.884,-816448,-1806307,-1831741,-7005678,2,2,2,2
2025-09-03 13:05:31.884,-816444,-1806238,-1831735,-7005675,2,2,2,2
2025-09-03 13:05:31.884,-816503,-1822613,-1831693,-2803175,2,2,2,2
2025-09-03 13:05:31.884,-800128,-1806238,-1831697,-7005674,2,2,2,2
2025-09-03 13:05:31.885,-816520,-1806307,-1831705,-7005647,2,2,2,2
2025-09-03 13:05:31.885,-816525,-1806314,-1831711,-7005684,2,2,2,2
2025-09-03 13:05:31.885,-816596,-1806317,-1831778,-7005688,2,2,2,2
2025-09-03 13:05:31.886,-816506,-1806217,-1831684,-7005588,2,2,2,2
2025-09-03 13:05:31.886,-800121,-1806210,-1831686,-7005649,2,2,2,2
2025-09-03 13:05:31.886,-816500,-1806206,-1831683,-4908432,2,2,2,2
2025-09-03 13:05:31.886,-800056,-1806209,-1831692,-7005590,2,2,2,2
2025-09-03 13:05:31.887,-816518,-1822605,-1831705,-2803171,2,2,2,2
2025-09-03 13:05:31.887,-816519,-1822607,-1831707,-2803175,2,2,2,2
2025-09-03 13:05:31.887,-800126,-1806215,-1831700,-7005665,2,2,2,2
2025-09-03 13:05:31.887,-816510,-1806215,-1831701,-4908513,2,2,2,2
2025-09-03 13:05:31.888,-816505,-1806278,-3928849,-7005661,2,2,2,2
2025-09-03 13:05:31.888,-816500,-1806144,-3928844,-7005656,2,2,2,2
2025-09-03 13:05:31.888,-816436,-3903357,-1831686,-7005592,2,2,2,2
2025-09-03 13:05:31.888,-816501,-1822588,-1831685,-2811292,2,2,2,2
2025-09-03 13:05:31.889,-816499,-1806206,-1831684,-4908440,2,2,2,2
2025-09-03 13:05:31.889,-816492,-1806197,-1831677,-4908430,2,2,2,2
2025-09-03 13:05:31.889,-816415,-1806119,-3928816,-7005502,2,2,2,2
2025-09-03 13:05:31.889,-816423,-3903336,-1831670,-7005569,2,2,2,2
2025-09-03 13:05:31.890,-816492,-1822507,-1831672,-7005568,2,2,2,2
2025-09-03 13:05:31.890,-816497,-1822507,-1831674,-7005569,2,2,2,2
2025-09-03 13:05:31.890,-800053,-1806187,-1831682,-7005575,2,2,2,2
2025-09-03 13:05:31.891,-816412,-1806099,-1831656,-7005549,2,2,2,2
2025-09-03 13:05:31.891,-816413,-3903258,-1831665,-7005552,2,2,2,2
2025-09-03 13:05:31.891,-816495,-1822506,-1831682,-2811264,2,2,2,2
2025-09-03 13:05:31.891,-800079,-1806186,-1831677,-7005568,2,2,2,2
2025-09-03 13:05:31.892,-816516,-1822588,-1831697,-2811279,2,2,2,2
2025-09-03 13:05:31.892,-800125,-1806201,-1831693,-7005639,2,2,2,2
2025-09-03 13:05:31.892,-816507,-1806198,-1831689,-7005573,2,2,2,2
2025-09-03 13:05:31.893,-816448,-1806206,-1831693,-7005580,2,2,2,2
2025-09-03 13:05:31.893,-800057,-1806198,-1831687,-7005576,2,2,2,2
2025-09-03 13:05:31.893,-800125,-1806199,-1831693,-7005638,2,2,2,2
2025-09-03 13:05:31.894,-816504,-1806198,-1831688,-4908412,2,2,2,2
2025-09-03 13:05:31.894,-816493,-1806187,-1831675,-4908403,2,2,2,2
2025-09-03 13:05:31.894,-816481,-1806113,-3928813,-7005510,2,2,2,2
2025-09-03 13:05:31.894,-816401,-1806096,-3928732,-7005459,2,2,2,2
2025-09-03 13:05:31.895,-800019,-1806095,-1831649,-7005461,2,2,2,2
2025-09-03 13:05:31.895,-800026,-1806101,-1831661,-7005469,2,2,2,2
2025-09-03 13:05:31.895,-816407,-1806093,-1831659,-4908315,2,2,2,2
2025-09-03 13:05:31.895,-816401,-1806086,-1831652,-4908310,2,2,2,2
2025-09-03 13:05:31.896,-816412,-3903241,-1831622,-7005467,2,2,2,2
2025-09-03 13:05:31.896,-816403,-3903237,-1831613,-7005460,2,2,2,2
2025-09-03 13:05:31.896,-816639,-1822712,-1831566,-2802954,2,2,2,2
2025-09-03 13:05:31.896,-816632,-1822704,-1831563,-7005442,2,2,2,2
2025-09-03 13:05:31.897,-816619,-1806306,-3928703,-7005430,2,2,2,2
2025-09-03 13:05:31.897,-816543,-1806300,-1831543,-7005422,2,2,2,2
2025-09-03 13:05:31.897,-816602,-1806234,-1831473,-7005419,2,2,2,2
2025-09-03 13:05:31.898,-800181,-1806228,-1831532,-7005414,2,2,2,2
2025-09-03 13:05:31.898,-800191,-1806239,-1831539,-7005421,2,2,2,2
2025-09-03 13:05:31.898,-816621,-1806315,-1831549,-7005430,2,2,2,2
2025-09-03 13:05:31.898,-816625,-1822703,-1831551,-2811125,2,2,2,2
2025-09-03 13:05:31.899,-816625,-1806314,-1831487,-7005426,2,2,2,2
2025-09-03 13:05:31.899,-816614,-1806235,-1831472,-7005411,2,2,2,2
2025-09-03 13:05:31.899,-816541,-1806287,-1831529,-7005338,2,2,2,2
2025-09-03 13:05:31.900,-816541,-1806285,-3928685,-7005370,2,2,2,2
2025-09-03 13:05:31.900,-800156,-1806214,-1831530,-7005404,2,2,2,2
2025-09-03 13:05:31.900,-800152,-1806207,-1831532,-7005398,2,2,2,2
2025-09-03 13:05:31.900,-800157,-1806212,-1831541,-7005401,2,2,2,2
2025-09-03 13:05:31.900,-816540,-1806210,-1831477,-4908183,2,2,2,2
2025-09-03 13:05:31.901,-816593,-1806199,-1831495,-7005323,2,2,2,2
2025-09-03 13:05:31.901,-816579,-1806183,-1831483,-7005306,2,2,2,2
2025-09-03 13:05:31.901,-816578,-3903330,-1831444,-7005298,2,2,2,2
2025-09-03 13:05:31.901,-816524,-1822537,-1831454,-2811000,2,2,2,2
2025-09-03 13:05:31.902,-816612,-1806141,-1831538,-7005326,2,2,2,2
2025-09-03 13:05:31.902,-816386,-1806300,-1831568,-7005390,2,2,2,2
2025-09-03 13:05:31.902,-816395,-1806315,-3928733,-7005433,2,2,2,2
2025-09-03 13:05:31.902,-816387,-3903462,-1831605,-7005422,2,2,2,2
2025-09-03 13:05:31.903,-800249,-1806232,-1831555,-7005407,2,2,2,2
2025-09-03 13:05:31.903,-800241,-1806224,-1831547,-7005401,2,2,2,2
2025-09-03 13:05:31.903,-800223,-1806206,-1831529,-7005316,2,2,2,2
2025-09-03 13:05:31.904,-816508,-1822521,-1831430,-2802786,2,2,2,2
2025-09-03 13:05:31.904,-816445,-1806099,-1831430,-7005214,2,2,2,2
2025-09-03 13:05:31.904,-816505,-1806095,-1831427,-4908062,2,2,2,2
2025-09-03 13:05:31.904,-800126,-1806098,-1831431,-7005281,2,2,2,2
2025-09-03 13:05:31.905,-816519,-1806101,-1831432,-7005221,2,2,2,2
2025-09-03 13:05:31.905,-816530,-1822492,-1831440,-2802796,2,2,2,2
2025-09-03 13:05:31.905,-800152,-1806108,-1831449,-7005230,2,2,2,2
2025-09-03 13:05:31.905,-816539,-1806112,-1831455,-7005295,2,2,2,2
2025-09-03 13:05:31.906,-816613,-1806189,-1831530,-7005302,2,2,2,2
2025-09-03 13:05:31.906,-816397,-1806230,-1831570,-7005342,2,2,2,2
2025-09-03 13:05:31.906,-816421,-3903468,-1831627,-7005432,2,2,2,2
2025-09-03 13:05:31.906,-816485,-1822669,-1831660,-2802937,2,2,2,2
2025-09-03 13:05:31.907,-816491,-1806320,-1831663,-7005441,2,2,2,2
2025-09-03 13:05:31.907,-816503,-1806331,-1831676,-4908302,2,2,2,2
2025-09-03 13:05:31.907,-816505,-1806324,-3928824,-7005450,2,2,2,2
2025-09-03 13:05:31.907,-816440,-1806318,-1831668,-7005447,2,2,2,2
2025-09-03 13:05:31.908,-816499,-1822667,-1831670,-2811142,2,2,2,2
2025-09-03 13:05:31.908,-816498,-1822669,-1831670,-2811143,2,2,2,2
2025-09-03 13:05:31.908,-800131,-1806081,-1831691,-7005466,2,2,2,2
2025-09-03 13:05:31.908,-816536,-1806106,-1831713,-2811246,2,2,2,2
2025-09-03 13:05:31.909,-816599,-3903259,-1831712,-7005546,2,2,2,2
2025-09-03 13:05:31.909,-816601,-3903260,-1831747,-7005549,2,2,2,2
2025-09-03 13:05:31.909,-816609,-1822532,-1831784,-2811252,2,2,2,2
2025-09-03 13:05:31.909,-800204,-1806189,-1831791,-7005502,2,2,2,2
2025-09-03 13:05:31.910,-800273,-1806293,-1831825,-7005665,2,2,2,2
2025-09-03 13:05:31.910,-816739,-1822657,-1831837,-2803186,2,2,2,2
2025-09-03 13:05:31.911,-800297,-1806311,-1831909,-7005687,2,2,2,2
2025-09-03 13:05:31.911,-800330,-1806308,-1831908,-7005685,2,2,2,2
2025-09-03 13:05:31.911,-816658,-1806284,-1831821,-7005664,2,2,2,2
2025-09-03 13:05:31.912,-816650,-1822657,-1831815,-7005587,2,2,2,2
2025-09-03 13:05:31.912,-816636,-1806192,-1831736,-7005572,2,2,2,2
2025-09-03 13:05:31.912,-800200,-1806108,-1831778,-7005488,2,2,2,2
2025-09-03 13:05:31.912,-816612,-1806105,-1831705,-2811241,2,2,2,2
2025-09-03 13:05:31.913,-800233,-1806106,-1831709,-7005483,2,2,2,2
2025-09-03 13:05:31.913,-800256,-1806192,-1831799,-7005504,2,2,2,2
2025-09-03 13:05:31.913,-816669,-1806219,-1831893,-7005598,2,2,2,2
2025-09-03 13:05:31.913,-816746,-1806294,-1831909,-7005671,2,2,2,2
2025-09-03 13:05:31.914,-800388,-1806319,-1831681,-7005442,2,2,2,2
2025-09-03 13:05:31.914,-816846,-1806330,-1831691,-7005451,2,2,2,2
2025-09-03 13:05:31.915,-816770,-1806321,-3928834,-7005443,2,2,2,2
2025-09-03 13:05:31.915,-816762,-1806311,-3929079,-7005689,2,2,2,2
2025-09-03 13:05:31.915,-816691,-1806231,-1831881,-7005677,2,2,2,2
2025-09-03 13:05:31.915,-816748,-1822604,-1831838,-2803171,2,2,2,2
2025-09-03 13:05:31.916,-816740,-1806211,-1831898,-4908442,2,2,2,2
2025-09-03 13:05:31.916,-816659,-1806194,-1831884,-7005576,2,2,2,2
2025-09-03 13:05:31.916,-816642,-1806106,-1831801,-7005554,2,2,2,2
2025-09-03 13:05:31.916,-816617,-1806082,-1831777,-7005463,2,2,2,2
2025-09-03 13:05:31.917,-816538,-1822706,-1831701,-2802958,2,2,2,2
2025-09-03 13:05:31.917,-816537,-1822705,-1831697,-2802958,2,2,2,2
2025-09-03 13:05:31.917,-800182,-1806318,-1831693,-7005447,2,2,2,2
2025-09-03 13:05:31.917,-816521,-1806239,-1831676,-4908277,2,2,2,2
2025-09-03 13:05:31.918,-816439,-3903369,-1831627,-7005414,2,2,2,2
2025-09-03 13:05:31.918,-816501,-1806277,-1831652,-7005412,2,2,2,2
2025-09-03 13:05:31.918,-816514,-1822642,-1831664,-2802922,2,2,2,2
2025-09-03 13:05:31.918,-816521,-1822679,-1831670,-2811117,2,2,2,2
2025-09-03 13:05:31.919,-816543,-1806318,-3928846,-7005445,2,2,2,2
2025-09-03 13:05:31.919,-800236,-1806328,-1831701,-7005458,2,2,2,2
2025-09-03 13:05:31.920,-800246,-1806083,-1831710,-7005462,2,2,2,2
2025-09-03 13:05:31.920,-800254,-1806091,-1831782,-7005467,2,2,2,2
2025-09-03 13:05:31.920,-816637,-1806094,-1831724,-4908318,2,2,2,2
2025-09-03 13:05:31.921,-816648,-1806103,-1831738,-7005549,2,2,2,2
2025-09-03 13:05:31.921,-816648,-1806106,-1831743,-7005550,2,2,2,2
2025-09-03 13:05:31.921,-816651,-1822496,-1831812,-7005551,2,2,2,2
2025-09-03 13:05:31.921,-816654,-1806116,-3928969,-7005554,2,2,2,2
2025-09-03 13:05:31.922,-800276,-1806118,-1831818,-7005492,2,2,2,2
2025-09-03 13:05:31.922,-816657,-1806114,-1831814,-7005488,2,2,2,2
2025-09-03 13:05:31.922,-816665,-1806185,-1831886,-7005560,2,2,2,2
2025-09-03 13:05:31.922,-816743,-1806198,-1831899,-4908423,2,2,2,2
2025-09-03 13:05:31.923,-816679,-1806200,-1831838,-7005577,2,2,2,2
2025-09-03 13:05:31.923,-816737,-1822578,-1831834,-2811269,2,2,2,2
2025-09-03 13:05:31.923,-800363,-1806205,-1831910,-7005646,2,2,2,2
2025-09-03 13:05:31.924,-816763,-1806285,-1831926,-7005594,2,2,2,2
2025-09-03 13:05:31.924,-816770,-1806287,-1831930,-7005597,2,2,2,2
2025-09-03 13:05:31.924,-816771,-1806283,-3929082,-7005628,2,2,2,2
2025-09-03 13:05:31.924,-816849,-3903381,-1831683,-7005669,2,2,2,2
2025-09-03 13:05:31.925,-816869,-1806239,-1831700,-7005683,2,2,2,2
2025-09-03 13:05:31.925,-816870,-1806240,-1831697,-7005682,2,2,2,2
2025-09-03 13:05:31.925,-816865,-1806239,-1831694,-4908529,2,2,2,2
2025-09-03 13:05:31.925,-816871,-1806309,-3928851,-7005685,2,2,2,2
2025-09-03 13:05:31.926,-816800,-1822650,-1831691,-2803182,2,2,2,2
2025-09-03 13:05:31.926,-816871,-1822621,-1831694,-2803185,2,2,2,2
2025-09-03 13:05:31.926,-816867,-1822647,-1831692,-2811372,2,2,2,2
2025-09-03 13:05:31.926,-800448,-1806230,-1831691,-7005678,2,2,2,2
2025-09-03 13:05:31.927,-816867,-1806229,-1831693,-7005678,2,2,2,2
2025-09-03 13:05:31.927,-816793,-1806280,-3928835,-7005665,2,2,2,2
2025-09-03 13:05:31.927,-816842,-3903353,-1831927,-7005586,2,2,2,2
2025-09-03 13:05:31.927,-816781,-1822590,-1831928,-2803093,2,2,2,2
2025-09-03 13:05:31.928,-816797,-1806222,-1831688,-4908519,2,2,2,2
2025-09-03 13:05:31.928,-816790,-1806216,-1831681,-4908516,2,2,2,2
2025-09-03 13:05:31.928,-816790,-1806275,-1831682,-7005667,2,2,2,2
2025-09-03 13:05:31.929,-816791,-1822658,-1831682,-7005599,2,2,2,2
2025-09-03 13:05:31.929,-816780,-1822521,-1831931,-7005587,2,2,2,2
2025-09-03 13:05:31.929,-800438,-1806208,-1831683,-7005590,2,2,2,2
2025-09-03 13:05:31.930,-800485,-1806223,-1831697,-7005666,2,2,2,2
2025-09-03 13:05:31.930,-800508,-1806310,-1831787,-7005688,2,2,2,2
2025-09-03 13:05:31.930,-816660,-1806330,-1831744,-7005452,2,2,2,2
2025-09-03 13:05:31.930,-816740,-1806348,-1831827,-7005538,2,2,2,2
2025-09-03 13:05:31.931,-800497,-1806487,-1831966,-7005673,2,2,2,2
2025-09-03 13:05:31.931,-816890,-1806493,-1831973,-7005684,2,2,2,2
2025-09-03 13:05:31.932,-816902,-1806572,-3929196,-7005698,2,2,2,2
2025-09-03 13:05:31.932,-816897,-1806569,-3929187,-7005695,2,2,2,2
2025-09-03 13:05:31.932,-816892,-1806561,-1831999,-7005690,2,2,2,2
2025-09-03 13:05:31.932,-816901,-1822924,-1832039,-2803201,2,2,2,2
2025-09-03 13:05:31.933,-816899,-1806569,-1831972,-4908538,2,2,2,2
2025-09-03 13:05:31.933,-816894,-1806561,-1831971,-4908534,2,2,2,2
2025-09-03 13:05:31.933,-816889,-1806551,-1831964,-7005681,2,2,2,2
2025-09-03 13:05:31.933,-816873,-1806472,-1831949,-7005670,2,2,2,2
2025-09-03 13:05:31.934,-816788,-1822834,-1831927,-2811279,2,2,2,2
2025-09-03 13:05:31.934,-816785,-1822792,-1831920,-2811275,2,2,2,2
2025-09-03 13:05:31.934,-800437,-1806442,-1831924,-7005641,2,2,2,2
2025-09-03 13:05:31.934,-816785,-1814631,-1831920,-4908420,2,2,2,2
2025-09-03 13:05:31.935,-816841,-3903588,-1831881,-7005563,2,2,2,2
2025-09-03 13:05:31.935,-816703,-3903512,-1831871,-7005550,2,2,2,2
2025-09-03 13:05:31.935,-816746,-1822721,-1831824,-2802969,2,2,2,2
2025-09-03 13:05:31.935,-800320,-1806324,-1831815,-7005456,2,2,2,2
2025-09-03 13:05:31.936,-816871,-1806136,-1831688,-7005642,2,2,2,2
2025-09-03 13:05:31.936,-816851,-3903332,-1831924,-7005554,2,2,2,2
2025-09-03 13:05:31.937,-800382,-1806095,-1831839,-7005468,2,2,2,2
2025-09-03 13:05:31.937,-800328,-1806325,-1831820,-7005448,2,2,2,2
2025-09-03 13:05:31.937,-816640,-1806224,-1831718,-2811105,2,2,2,2
2025-09-03 13:05:31.937,-816619,-1806136,-3928849,-7005382,2,2,2,2
2025-09-03 13:05:31.938,-816538,-1806184,-1831684,-7005305,2,2,2,2
2025-09-03 13:05:31.938,-816531,-1806179,-1831677,-7005305,2,2,2,2
2025-09-03 13:05:31.938,-816526,-1806111,-1831672,-7005301,2,2,2,2
2025-09-03 13:05:31.938,-800210,-1806177,-1831673,-7005305,2,2,2,2
2025-09-03 13:05:31.939,-800133,-1806100,-1831660,-7005226,2,2,2,2
2025-09-03 13:05:31.939,-800128,-1806094,-1831654,-7005216,2,2,2,2
2025-09-03 13:05:31.939,-816586,-1806097,-1831658,-7005286,2,2,2,2
2025-09-03 13:05:31.939,-816523,-1822483,-1831660,-7005284,2,2,2,2
2025-09-03 13:05:31.940,-816583,-1806094,-1831623,-7005211,2,2,2,2
2025-09-03 13:05:31.940,-816585,-1806091,-1831624,-7005214,2,2,2,2
2025-09-03 13:05:31.940,-816513,-1822467,-1831584,-2802713,2,2,2,2
2025-09-03 13:05:31.940,-800133,-1806088,-1831653,-7005214,2,2,2,2
2025-09-03 13:05:31.941,-816526,-1806099,-1831667,-7005258,2,2,2,2
2025-09-03 13:05:31.941,-816611,-1806122,-1831686,-7005309,2,2,2,2
2025-09-03 13:05:31.941,-816612,-1806190,-1831688,-7005311,2,2,2,2
2025-09-03 13:05:31.941,-816618,-3903348,-1831695,-7005317,2,2,2,2
2025-09-03 13:05:31.942,-800247,-1806212,-1831706,-7005396,2,2,2,2
2025-09-03 13:05:31.942,-800271,-1806237,-1831791,-7005419,2,2,2,2
2025-09-03 13:05:31.942,-816665,-1806308,-1831738,-4908276,2,2,2,2
2025-09-03 13:05:31.942,-816741,-1806315,-3928963,-7005437,2,2,2,2
2025-09-03 13:05:31.943,-816749,-1822706,-1831820,-2802944,2,2,2,2
2025-09-03 13:05:31.943,-816748,-1822706,-1831821,-2802944,2,2,2,2
2025-09-03 13:05:31.943,-800362,-1806321,-1831818,-7005442,2,2,2,2
2025-09-03 13:05:31.943,-800336,-1806327,-1831827,-7005449,2,2,2,2
2025-09-03 13:05:31.944,-816770,-1806336,-1831840,-7005461,2,2,2,2
2025-09-03 13:05:31.944,-816781,-1806090,-3929071,-7005468,2,2,2,2
2025-09-03 13:05:31.944,-816870,-3903259,-1831688,-7005554,2,2,2,2
2025-09-03 13:05:31.944,-816879,-1806180,-1831693,-7005559,2,2,2,2
2025-09-03 13:05:31.945,-816888,-1806184,-1831698,-2811262,2,2,2,2
2025-09-03 13:05:31.945,-816894,-1806192,-1831707,-2811271,2,2,2,2
2025-09-03 13:05:31.945,-816651,-1806140,-3928932,-7005651,2,2,2,2
2025-09-03 13:05:31.945,-800353,-1806223,-1831797,-7005670,2,2,2,2
2025-09-03 13:05:31.946,-816747,-1806297,-1831809,-7005680,2,2,2,2
2025-09-03 13:05:31.946,-816760,-1822697,-1831820,-7005692,2,2,2,2
2025-09-03 13:05:31.946,-800455,-1806321,-1831828,-7005445,2,2,2,2
2025-09-03 13:05:31.946,-816834,-1806316,-1831822,-7005441,2,2,2,2
2025-09-03 13:05:31.947,-816690,-1806234,-1831875,-7005684,2,2,2,2
2025-09-03 13:05:31.947,-816676,-1806217,-1831730,-7005669,2,2,2,2
2025-09-03 13:05:31.947,-816666,-1806205,-1831719,-4908443,2,2,2,2
2025-09-03 13:05:31.947,-816663,-1806137,-1831777,-7005620,2,2,2,2
2025-09-03 13:05:31.948,-816653,-1822578,-1831702,-2803083,2,2,2,2
2025-09-03 13:05:31.948,-816644,-1822570,-1831696,-2803075,2,2,2,2
2025-09-03 13:05:31.948,-800511,-1806179,-1831693,-7005502,2,2,2,2
2025-09-03 13:05:31.948,-816650,-1806186,-1831706,-7005575,2,2,2,2
2025-09-03 13:05:31.949,-816658,-1806193,-1831778,-7005583,2,2,2,2
2025-09-03 13:05:31.949,-816673,-1806205,-1831794,-7005598,2,2,2,2
2025-09-03 13:05:31.949,-816683,-3903367,-1831803,-7005669,2,2,2,2
2025-09-03 13:05:31.949,-816744,-1822602,-1831803,-2803170,2,2,2,2
2025-09-03 13:05:31.950,-816663,-1806198,-1831722,-4908432,2,2,2,2
2025-09-03 13:05:31.950,-816656,-1806194,-1831714,-4908427,2,2,2,2
2025-09-03 13:05:31.950,-816671,-1806133,-1831793,-7005651,2,2,2,2
2025-09-03 13:05:31.951,-800361,-1806207,-1831801,-7005660,2,2,2,2
2025-09-03 13:05:31.951,-800379,-1806223,-1831816,-7005676,2,2,2,2
2025-09-03 13:05:31.951,-800375,-1806220,-1831812,-7005672,2,2,2,2
2025-09-03 13:05:31.951,-816765,-1806218,-1831879,-2811371,2,2,2,2
2025-09-03 13:05:31.952,-816836,-3903374,-1831824,-7005681,2,2,2,2
2025-09-03 13:05:31.952,-816840,-3903384,-1831864,-7005689,2,2,2,2
2025-09-03 13:05:31.952,-816694,-1806208,-1831875,-7005665,2,2,2,2
2025-09-03 13:05:31.952,-816671,-1806124,-1831791,-7005580,2,2,2,2
2025-09-03 13:05:31.953,-816666,-1806115,-3928937,-7005641,2,2,2,2
2025-09-03 13:05:31.953,-800505,-1806333,-1831693,-7005475,2,2,2,2
2025-09-03 13:05:31.953,-816882,-1806325,-1831683,-7005465,2,2,2,2
2025-09-03 13:05:31.954,-800497,-1806322,-1831936,-7005461,2,2,2,2
2025-09-03 13:05:31.954,-816877,-1806315,-1831933,-7005490,2,2,2,2
2025-09-03 13:05:31.954,-816868,-1806308,-1831926,-7005450,2,2,2,2
2025-09-03 13:05:31.954,-816866,-1806308,-1831927,-7005450,2,2,2,2
2025-09-03 13:05:31.955,-816867,-1806306,-1831927,-7005448,2,2,2,2
2025-09-03 13:05:31.955,-816865,-1806235,-1831923,-7005444,2,2,2,2
2025-09-03 13:05:31.955,-816868,-1806304,-1831927,-7005446,2,2,2,2
2025-09-03 13:05:31.955,-816870,-1806310,-1831925,-7005451,2,2,2,2
2025-09-03 13:05:31.956,-800492,-1806315,-1831926,-7005455,2,2,2,2
2025-09-03 13:05:31.956,-816876,-1822665,-1831930,-2802959,2,2,2,2
2025-09-03 13:05:31.956,-800498,-1806317,-1831935,-7005460,2,2,2,2
2025-09-03 13:05:31.956,-816883,-1806319,-1831682,-7005460,2,2,2,2
2025-09-03 13:05:31.957,-816893,-3903481,-1831694,-7005470,2,2,2,2
2025-09-03 13:05:31.957,-816891,-1806327,-1831693,-7005465,2,2,2,2
2025-09-03 13:05:31.957,-816870,-1822658,-1831931,-2802948,2,2,2,2
2025-09-03 13:05:31.957,-800399,-1806219,-1831909,-7005425,2,2,2,2
2025-09-03 13:05:31.958,-816781,-1806280,-3929057,-7005385,2,2,2,2
2025-09-03 13:05:31.958,-816791,-1806223,-1831914,-2811121,2,2,2,2
2025-09-03 13:05:31.958,-816869,-1806300,-3929083,-7005439,2,2,2,2
2025-09-03 13:05:31.958,-816871,-1822623,-1831933,-2802945,2,2,2,2
2025-09-03 13:05:31.959,-800460,-1806310,-1831685,-7005445,2,2,2,2
2025-09-03 13:05:31.959,-800261,-1806334,-1831706,-7005471,2,2,2,2
2025-09-03 13:05:31.959,-816753,-1806184,-1831876,-4908423,2,2,2,2
2025-09-03 13:05:31.959,-816769,-1806129,-3928976,-7005619,2,2,2,2
2025-09-03 13:05:31.960,-816840,-1806201,-1831894,-7005591,2,2,2,2
2025-09-03 13:05:31.960,-816863,-1806221,-1831913,-7005674,2,2,2,2
2025-09-03 13:05:31.960,-816895,-1822696,-1831944,-7005448,2,2,2,2
2025-09-03 13:05:31.960,-816921,-1806334,-1831967,-4908385,2,2,2,2
2025-09-03 13:05:31.961,-816926,-1806342,-1832035,-7005479,2,2,2,2
2025-09-03 13:05:31.961,-816925,-1806344,-1832037,-7005476,2,2,2,2
2025-09-03 13:05:31.961,-816928,-3903500,-1831978,-7005542,2,2,2,2
2025-09-03 13:05:31.961,-816926,-1822731,-1832039,-2811237,2,2,2,2
2025-09-03 13:05:31.962,-817089,-1806442,-1832070,-7005575,2,2,2,2
2025-09-03 13:05:31.962,-816933,-3903498,-1831979,-7005547,2,2,2,2
2025-09-03 13:05:31.963,-816918,-1806330,-1831964,-7005464,2,2,2,2
2025-09-03 13:05:31.963,-816994,-1806340,-1832038,-7005538,2,2,2,2
2025-09-03 13:05:31.963,-800564,-1806354,-1832051,-7005552,2,2,2,2
2025-09-03 13:05:31.964,-816947,-1806345,-1831985,-7005552,2,2,2,2
2025-09-03 13:05:31.964,-816929,-1806331,-1831971,-7005537,2,2,2,2
2025-09-03 13:05:31.964,-816925,-1822710,-1831963,-7005465,2,2,2,2
2025-09-03 13:05:31.964,-800545,-1806327,-1831964,-7005463,2,2,2,2
2025-09-03 13:05:31.965,-816914,-1822698,-1831952,-2802951,2,2,2,2
2025-09-03 13:05:31.965,-816898,-1822619,-1831935,-2803189,2,2,2,2
2025-09-03 13:05:31.965,-800503,-1806223,-1831925,-7005674,2,2,2,2
2025-09-03 13:05:31.965,-800515,-1806231,-1831938,-7005682,2,2,2,2
2025-09-03 13:05:31.966,-816912,-1806307,-1831948,-7005692,2,2,2,2
2025-09-03 13:05:31.966,-816911,-1806310,-1831949,-7005695,2,2,2,2
2025-09-03 13:05:31.966,-816906,-1822622,-1831945,-2811387,2,2,2,2
2025-09-03 13:05:31.966,-816901,-1822647,-1831938,-2803186,2,2,2,2
2025-09-03 13:05:31.967,-816894,-1806227,-1831935,-4908526,2,2,2,2
2025-09-03 13:05:31.967,-816891,-1806226,-1831930,-4908523,2,2,2,2
2025-09-03 13:05:31.967,-816885,-1806289,-3929080,-7005637,2,2,2,2
2025-09-03 13:05:31.967,-816869,-1806139,-1831911,-7005651,2,2,2,2
2025-09-03 13:05:31.968,-800446,-1806194,-1831906,-7005645,2,2,2,2
2025-09-03 13:05:31.968,-800411,-1806188,-1831837,-7005638,2,2,2,2
2025-09-03 13:05:31.968,-816787,-1806112,-1831886,-4908409,2,2,2,2
2025-09-03 13:05:31.969,-816695,-3903233,-1831733,-7005467,2,2,2,2
2025-09-03 13:05:31.969,-816704,-3903243,-1831741,-7005541,2,2,2,2
2025-09-03 13:05:31.969,-816770,-1822474,-1831806,-2811233,2,2,2,2
2025-09-03 13:05:31.969,-816772,-1806087,-1831805,-7005472,2,2,2,2
2025-09-03 13:05:31.970,-816764,-1806333,-3928948,-7005463,2,2,2,2
2025-09-03 13:05:31.970,-816750,-1806323,-3928941,-7005452,2,2,2,2
2025-09-03 13:05:31.970,-800354,-1806315,-1831782,-7005443,2,2,2,2
2025-09-03 13:05:31.970,-816663,-1806307,-1831710,-7005435,2,2,2,2
2025-09-03 13:05:31.971,-800284,-1806309,-1831712,-7005442,2,2,2,2
2025-09-03 13:05:31.971,-800295,-1806321,-1831785,-7005450,2,2,2,2
2025-09-03 13:05:31.971,-816665,-1822621,-1831705,-2802936,2,2,2,2
2025-09-03 13:05:31.972,-816895,-1822659,-1831935,-7005342,2,2,2,2
2025-09-03 13:05:31.972,-816877,-1822513,-1831920,-7005322,2,2,2,2
2025-09-03 13:05:31.972,-816892,-1806273,-1831936,-7005371,2,2,2,2
2025-09-03 13:05:31.972,-816647,-1806220,-1831690,-7005413,2,2,2,2
2025-09-03 13:05:31.973,-800266,-1806225,-1831697,-7005417,2,2,2,2
2025-09-03 13:05:31.973,-800262,-1806225,-1831696,-7005415,2,2,2,2
2025-09-03 13:05:31.973,-800258,-1806216,-1831690,-7005409,2,2,2,2
2025-09-03 13:05:31.973,-816645,-1806216,-1831692,-4908260,2,2,2,2
2025-09-03 13:05:31.974,-816644,-3903370,-1831695,-7005410,2,2,2,2
2025-09-03 13:05:31.974,-816660,-1822654,-1831777,-2802932,2,2,2,2
2025-09-03 13:05:31.974,-800288,-1806309,-1831783,-7005434,2,2,2,2
2025-09-03 13:05:31.975,-816672,-1806302,-3928930,-7005434,2,2,2,2
2025-09-03 13:05:31.975,-816748,-1806315,-3928944,-7005451,2,2,2,2
2025-09-03 13:05:31.975,-816749,-1806316,-1831792,-7005450,2,2,2,2
2025-09-03 13:05:31.975,-816686,-3903466,-1831723,-7005446,2,2,2,2
2025-09-03 13:05:31.976,-816747,-1806306,-1831721,-4908287,2,2,2,2
2025-09-03 13:05:31.976,-800319,-1806230,-1831711,-7005428,2,2,2,2
2025-09-03 13:05:31.976,-816747,-1806237,-1831720,-2811130,2,2,2,2
2025-09-03 13:05:31.976,-816751,-1806307,-3928939,-7005440,2,2,2,2
2025-09-03 13:05:31.977,-816756,-1822667,-1831792,-2811143,2,2,2,2
2025-09-03 13:05:31.977,-816692,-1806315,-1831727,-7005446,2,2,2,2
2025-09-03 13:05:31.977,-816759,-1806316,-1831791,-7005444,2,2,2,2
2025-09-03 13:05:31.977,-800451,-1806327,-1831800,-7005454,2,2,2,2
2025-09-03 13:05:31.978,-800393,-1806332,-1831807,-7005458,2,2,2,2
2025-09-03 13:05:31.978,-800384,-1806328,-1831801,-7005451,2,2,2,2
2025-09-03 13:05:31.978,-816701,-1806321,-1831737,-7005446,2,2,2,2
2025-09-03 13:05:31.978,-816771,-1822704,-1831804,-7005449,2,2,2,2
2025-09-03 13:05:31.979,-816697,-1806310,-1831799,-7005443,2,2,2,2
2025-09-03 13:05:31.979,-816696,-1806307,-1831800,-7005442,2,2,2,2
2025-09-03 13:05:31.979,-816761,-1822690,-1831798,-2802944,2,2,2,2
2025-09-03 13:05:31.979,-800373,-1806236,-1831791,-7005436,2,2,2,2
2025-09-03 13:05:31.980,-816745,-1806287,-1831777,-7005388,2,2,2,2
2025-09-03 13:05:31.980,-816671,-1806144,-1831700,-7005373,2,2,2,2
2025-09-03 13:05:31.980,-816659,-1806198,-1831688,-7005328,2,2,2,2
2025-09-03 13:05:31.981,-800310,-1806201,-1831690,-7005397,2,2,2,2
2025-09-03 13:05:31.981,-800320,-1806212,-1831701,-7005409,2,2,2,2
2025-09-03 13:05:31.981,-816662,-1806203,-1831693,-4908184,2,2,2,2
2025-09-03 13:05:31.981,-816662,-1806134,-3928844,-7005365,2,2,2,2
2025-09-03 13:05:31.982,-816666,-1822589,-1831702,-2802842,2,2,2,2
2025-09-03 13:05:31.982,-816752,-1822643,-1831787,-2802929,2,2,2,2
2025-09-03 13:05:31.982,-800385,-1806306,-1831806,-7005445,2,2,2,2
2025-09-03 13:05:31.982,-816784,-1806320,-1831882,-4908308,2,2,2,2
2025-09-03 13:05:31.983,-816797,-1806331,-1831826,-7005471,2,2,2,2
2025-09-03 13:05:31.983,-816865,-1806335,-3928979,-7005474,2,2,2,2
2025-09-03 13:05:31.983,-816858,-3903478,-1831819,-7005462,2,2,2,2
2025-09-03 13:05:31.983,-816796,-1822714,-1831827,-2811160,2,2,2,2
2025-09-03 13:05:31.984,-816795,-1806329,-1831893,-2811162,2,2,2,2
2025-09-03 13:05:31.984,-800473,-1806322,-1831820,-7005455,2,2,2,2
2025-09-03 13:05:31.984,-816854,-3903470,-1831816,-7005450,2,2,2,2
2025-09-03 13:05:31.985,-816790,-1822702,-1831823,-7005452,2,2,2,2
2025-09-03 13:05:31.985,-816788,-1822701,-1831824,-7005453,2,2,2,2
2025-09-03 13:05:31.985,-800457,-1806312,-1831815,-7005442,2,2,2,2
2025-09-03 13:05:31.986,-816834,-1806308,-1831875,-7005440,2,2,2,2
2025-09-03 13:05:31.986,-800379,-1806236,-1831799,-7005434,2,2,2,2
2025-09-03 13:05:31.986,-816746,-1806211,-1831715,-7005411,2,2,2,2
2025-09-03 13:05:31.986,-800313,-1806190,-1831697,-7005327,2,2,2,2
2025-09-03 13:05:31.987,-816666,-1822573,-1831700,-2802829,2,2,2,2
2025-09-03 13:05:31.987,-816740,-1822587,-1831708,-2811027,2,2,2,2
2025-09-03 13:05:31.987,-800366,-1806208,-1831781,-7005398,2,2,2,2
2025-09-03 13:05:31.987,-816766,-1806224,-1831738,-7005411,2,2,2,2
2025-09-03 13:05:31.988,-816836,-1806232,-1831812,-7005417,2,2,2,2
2025-09-03 13:05:31.988,-816774,-1806300,-3928964,-7005385,2,2,2,2
2025-09-03 13:05:31.988,-816847,-3903390,-1831813,-7005423,2,2,2,2
2025-09-03 13:05:31.988,-800401,-1806239,-1831814,-7005424,2,2,2,2
2025-09-03 13:05:31.989,-816792,-1806310,-1831889,-4908286,2,2,2,2
2025-09-03 13:05:31.989,-816788,-1806311,-1831888,-4908287,2,2,2,2
2025-09-03 13:05:31.989,-816781,-1806308,-3928971,-7005434,2,2,2,2
2025-09-03 13:05:31.989,-816852,-1806314,-1831857,-7005437,2,2,2,2
2025-09-03 13:05:31.990,-800401,-1806305,-1831819,-7005430,2,2,2,2
2025-09-03 13:05:31.990,-816776,-1822607,-1831803,-2811114,2,2,2,2
2025-09-03 13:05:31.990,-800380,-1806205,-1831789,-7005403,2,2,2,2
2025-09-03 13:05:31.990,-816748,-1806188,-1831712,-2811016,2,2,2,2
2025-09-03 13:05:31.991,-816669,-3903260,-1831695,-7005302,2,2,2,2
2025-09-03 13:05:31.991,-816651,-3903240,-1831932,-7005216,2,2,2,2
2025-09-03 13:05:31.991,-816890,-1822456,-1831921,-2802703,2,2,2,2
2025-09-03 13:05:31.991,-800504,-1806070,-1831919,-7005196,2,2,2,2
2025-09-03 13:05:31.992,-816642,-1806077,-3929081,-7005235,2,2,2,2
2025-09-03 13:05:31.992,-816676,-3903263,-1831740,-7005307,2,2,2,2
2025-09-03 13:05:31.992,-816680,-1806182,-1831711,-7005313,2,2,2,2
2025-09-03 13:05:31.993,-800325,-1806186,-1831778,-7005315,2,2,2,2
2025-09-03 13:05:31.993,-800373,-1806199,-1831794,-7005328,2,2,2,2
2025-09-03 13:05:31.993,-816764,-1822590,-1831803,-2811028,2,2,2,2
2025-09-03 13:05:31.994,-816769,-1822594,-1831804,-2811032,2,2,2,2
2025-09-03 13:05:31.994,-816774,-1806212,-1831873,-7005339,2,2,2,2
2025-09-03 13:05:31.994,-816773,-1806208,-1831743,-4908185,2,2,2,2
2025-09-03 13:05:31.994,-816695,-1806192,-1831796,-7005324,2,2,2,2
2025-09-03 13:05:31.995,-800353,-1806107,-1831712,-7005242,2,2,2,2
2025-09-03 13:05:31.995,-800277,-1806097,-1831696,-7005229,2,2,2,2
2025-09-03 13:05:31.995,-800266,-1806087,-1831684,-7005219,2,2,2,2
2025-09-03 13:05:31.995,-816641,-1806076,-1831930,-4908056,2,2,2,2
2025-09-03 13:05:31.996,-816884,-1806062,-1831883,-7005193,2,2,2,2
2025-09-03 13:05:31.996,-816872,-1822368,-1831836,-2802938,2,2,2,2
2025-09-03 13:05:31.996,-800495,-1806054,-1831907,-7005186,2,2,2,2
2025-09-03 13:05:31.997,-816892,-1806064,-1831920,-7005195,2,2,2,2
2025-09-03 13:05:31.997,-816649,-1806075,-1831931,-7005239,2,2,2,2
2025-09-03 13:05:31.997,-816667,-1806090,-3928842,-7005224,2,2,2,2
2025-09-03 13:05:31.997,-816676,-3903251,-1831731,-7005292,2,2,2,2
2025-09-03 13:05:31.998,-816672,-1806097,-1831694,-7005286,2,2,2,2
2025-09-03 13:05:31.998,-800305,-1806077,-1831929,-7005204,2,2,2,2
2025-09-03 13:05:31.998,-816659,-1806079,-1831930,-4908056,2,2,2,2
2025-09-03 13:05:31.998,-816738,-1806092,-3928841,-7005259,2,2,2,2
2025-09-03 13:05:31.999,-816741,-1822471,-1831690,-2802792,2,2,2,2
2025-09-03 13:05:31.999,-816741,-1822470,-1831691,-2802793,2,2,2,2
2025-09-03 13:05:31.999,-816669,-1822465,-1831690,-7005216,2,2,2,2
2025-09-03 13:05:31.999,-800308,-1806074,-1831682,-7005206,2,2,2,2
2025-09-03 13:05:32.000,-816651,-1806066,-1831933,-7005191,2,2,2,2
2025-09-03 13:05:32.000,-816641,-1806058,-1831926,-7005438,2,2,2,2
2025-09-03 13:05:32.000,-816874,-3903123,-1831903,-7005416,2,2,2,2
2025-09-03 13:05:32.000,-816794,-1822336,-1831821,-2811029,2,2,2,2
2025-09-03 13:05:32.001,-816833,-1805852,-1831792,-7005298,2,2,2,2
2025-09-03 13:05:32.001,-800394,-1805925,-1831803,-7005243,2,2,2,2
2025-09-03 13:05:32.002,-816787,-1805870,-1831811,-7005313,2,2,2,2
2025-09-03 13:05:32.002,-816798,-1805879,-1831823,-7005322,2,2,2,2
2025-09-03 13:05:32.002,-800478,-1805946,-1831827,-7005326,2,2,2,2
2025-09-03 13:05:32.003,-800400,-1805935,-1831816,-7005379,2,2,2,2
2025-09-03 13:05:32.003,-800383,-1805851,-1831794,-7005228,2,2,2,2
2025-09-03 13:05:32.003,-816756,-1805841,-1831714,-4908129,2,2,2,2
2025-09-03 13:05:32.003,-816760,-1805843,-1831785,-7005256,2,2,2,2
2025-09-03 13:05:32.004,-816762,-1822227,-1831785,-2802792,2,2,2,2
2025-09-03 13:05:32.004,-816782,-1822307,-1831803,-2802808,2,2,2,2
2025-09-03 13:05:32.004,-800482,-1805939,-1831827,-7005387,2,2,2,2
2025-09-03 13:05:32.004,-816875,-1805947,-1831901,-7005329,2,2,2,2
2025-09-03 13:05:32.005,-816876,-1805882,-3928991,-7005392,2,2,2,2
2025-09-03 13:05:32.005,-816873,-1805873,-3928986,-7005317,2,2,2,2
2025-09-03 13:05:32.005,-816882,-3903094,-1831872,-7005322,2,2,2,2
2025-09-03 13:05:32.005,-816894,-1822334,-1831914,-2802832,2,2,2,2
2025-09-03 13:05:32.006,-816651,-1805968,-1831929,-4908189,2,2,2,2
2025-09-03 13:05:32.006,-816737,-1806054,-1831696,-4908280,2,2,2,2
2025-09-03 13:05:32.006,-816760,-1806077,-3928934,-7005199,2,2,2,2
2025-09-03 13:05:32.006,-816845,-3903252,-1831803,-7005285,2,2,2,2
2025-09-03 13:05:32.007,-816870,-1822511,-1831828,-7005315,2,2,2,2
2025-09-03 13:05:32.007,-816881,-1822520,-1831840,-2811024,2,2,2,2
2025-09-03 13:05:32.007,-800501,-1806202,-1831905,-7005333,2,2,2,2
2025-09-03 13:05:32.008,-816881,-3903350,-1831893,-7005323,2,2,2,2
2025-09-03 13:05:32.008,-816899,-3903363,-1831905,-7005337,2,2,2,2
2025-09-03 13:05:32.008,-816916,-1822641,-1831920,-2811111,2,2,2,2
2025-09-03 13:05:32.008,-800571,-1806232,-1831929,-7005420,2,2,2,2
2025-09-03 13:05:32.009,-800633,-1806326,-1831955,-7005449,2,2,2,2
2025-09-03 13:05:32.009,-816959,-1806332,-1831964,-7005457,2,2,2,2
2025-09-03 13:05:32.010,-800708,-1806336,-1832036,-7005465,2,2,2,2
2025-09-03 13:05:32.010,-800715,-1806087,-1832044,-7005537,2,2,2,2
2025-09-03 13:05:32.010,-817024,-1806085,-1832043,-7005467,2,2,2,2
2025-09-03 13:05:32.011,-817005,-1806325,-1831964,-4908299,2,2,2,2
2025-09-03 13:05:32.011,-817002,-1806318,-1831962,-4908295,2,2,2,2
2025-09-03 13:05:32.011,-816925,-1806302,-1831948,-7005434,2,2,2,2
2025-09-03 13:05:32.011,-816943,-1806318,-1831965,-7005452,2,2,2,2
2025-09-03 13:05:32.012,-800646,-1806083,-1832051,-7005472,2,2,2,2
2025-09-03 13:05:32.012,-800642,-1806333,-1832049,-7005470,2,2,2,2
2025-09-03 13:05:32.012,-817008,-1806313,-1831964,-7005453,2,2,2,2
2025-09-03 13:05:32.012,-817000,-1806300,-1831952,-7005441,2,2,2,2
2025-09-03 13:05:32.013,-816912,-3903364,-1831926,-7005418,2,2,2,2
2025-09-03 13:05:32.013,-816901,-3903353,-1831884,-7005410,2,2,2,2
2025-09-03 13:05:32.013,-816900,-1822578,-1831913,-2802846,2,2,2,2
2025-09-03 13:05:32.013,-800522,-1806195,-1831918,-7005408,2,2,2,2
2025-09-03 13:05:32.014,-816908,-1806124,-3929070,-7005371,2,2,2,2
2025-09-03 13:05:32.014,-816908,-1806117,-3929066,-7005365,2,2,2,2
2025-09-03 13:05:32.014,-816908,-1806183,-1831886,-7005336,2,2,2,2
2025-09-03 13:05:32.014,-816921,-3903352,-1831933,-7005414,2,2,2,2
2025-09-03 13:05:32.015,-816996,-1806211,-1831944,-4908275,2,2,2,2
2025-09-03 13:05:32.015,-800574,-1806207,-1831944,-7005422,2,2,2,2
2025-09-03 13:05:32.015,-816926,-1806208,-1831942,-2811116,2,2,2,2
2025-09-03 13:05:32.015,-816926,-1806276,-3929098,-7005417,2,2,2,2
2025-09-03 13:05:32.016,-816908,-1822540,-1831930,-2811030,2,2,2,2
2025-09-03 13:05:32.016,-816887,-1822518,-1831906,-2802814,2,2,2,2
2025-09-03 13:05:32.016,-800458,-1806086,-1831824,-7005234,2,2,2,2
2025-09-03 13:05:32.016,-800474,-1806069,-1831809,-7005281,2,2,2,2
2025-09-03 13:05:32.017,-816844,-3903209,-1831798,-7005202,2,2,2,2
2025-09-03 13:05:32.017,-800392,-1806052,-1831793,-7005195,2,2,2,2
2025-09-03 13:05:32.017,-816699,-1805974,-1831713,-7005438,2,2,2,2
2025-09-03 13:05:32.017,-816748,-1822410,-1831700,-7005425,2,2,2,2
2025-09-03 13:05:32.018,-816737,-1822334,-1831684,-2811107,2,2,2,2
2025-09-03 13:05:32.018,-800358,-1805958,-1831688,-7005414,2,2,2,2
2025-09-03 13:05:32.019,-800326,-1805957,-1831688,-7005410,2,2,2,2
2025-09-03 13:05:32.019,-800321,-1805950,-1831686,-7005402,2,2,2,2
2025-09-03 13:05:32.019,-816694,-1805973,-1831707,-7005422,2,2,2,2
2025-09-03 13:05:32.020,-816797,-1806072,-1831873,-7005202,2,2,2,2
2025-09-03 13:05:32.020,-816894,-1806105,-1831905,-7005300,2,2,2,2
2025-09-03 13:05:32.020,-816910,-1806186,-1831917,-4908164,2,2,2,2
2025-09-03 13:05:32.020,-816920,-1806125,-3929074,-7005317,2,2,2,2
2025-09-03 13:05:32.021,-800542,-1806193,-1831927,-7005388,2,2,2,2
2025-09-03 13:05:32.021,-816994,-1822581,-1831930,-2802828,2,2,2,2
2025-09-03 13:05:32.021,-800541,-1806188,-1831927,-7005380,2,2,2,2
2025-09-03 13:05:32.021,-817003,-1806202,-1831939,-4908175,2,2,2,2
2025-09-03 13:05:32.022,-816951,-1806215,-1831985,-7005341,2,2,2,2
2025-09-03 13:05:32.022,-817089,-1806225,-1831995,-7005411,2,2,2,2
2025-09-03 13:05:32.022,-816959,-3903371,-1831994,-7005409,2,2,2,2
2025-09-03 13:05:32.022,-817012,-1822592,-1831945,-2811032,2,2,2,2
2025-09-03 13:05:32.023,-816921,-1806180,-1831916,-4908157,2,2,2,2
2025-09-03 13:05:32.023,-800518,-1806102,-1831839,-7005296,2,2,2,2
2025-09-03 13:05:32.023,-816914,-1806111,-3929066,-7005303,2,2,2,2
2025-09-03 13:05:32.023,-816923,-3903336,-1831926,-7005310,2,2,2,2
2025-09-03 13:05:32.024,-816920,-1822497,-1831924,-7005305,2,2,2,2
2025-09-03 13:05:32.024,-816927,-1822499,-1831931,-7005314,2,2,2,2
2025-09-03 13:05:32.024,-800559,-1806192,-1831947,-7005330,2,2,2,2
2025-09-03 13:05:32.025,-816946,-3903348,-1831950,-7005337,2,2,2,2
2025-09-03 13:05:32.025,-800627,-1806201,-1831953,-7005405,2,2,2,2
2025-09-03 13:05:32.025,-817022,-1822594,-1831962,-2811111,2,2,2,2
2025-09-03 13:05:32.025,-800691,-1806227,-1832042,-7005427,2,2,2,2
2025-09-03 13:05:32.026,-817129,-1822695,-1832067,-2811142,2,2,2,2
2025-09-03 13:05:32.026,-800752,-1806313,-1832070,-7005446,2,2,2,2
2025-09-03 13:05:32.026,-817120,-1806234,-1831991,-7005433,2,2,2,2
2025-09-03 13:05:32.027,-800741,-1806234,-1832054,-7005434,2,2,2,2
2025-09-03 13:05:32.027,-800757,-1806307,-1832066,-7005445,2,2,2,2
2025-09-03 13:05:32.027,-800514,-1806315,-1832076,-7005453,2,2,2,2
2025-09-03 13:05:32.028,-817134,-1806232,-1831993,-4908281,2,2,2,2
2025-09-03 13:05:32.028,-817045,-1806210,-1831966,-4908191,2,2,2,2
2025-09-03 13:05:32.028,-817033,-1806133,-1831954,-7005367,2,2,2,2
2025-09-03 13:05:32.028,-817099,-1806197,-1831986,-7005336,2,2,2,2
2025-09-03 13:05:32.029,-800646,-1806193,-1831953,-7005392,2,2,2,2
2025-09-03 13:05:32.029,-800648,-1806193,-1831957,-7005393,2,2,2,2
2025-09-03 13:05:32.029,-817041,-1806200,-1831963,-7005339,2,2,2,2
2025-09-03 13:05:32.029,-817037,-1806130,-1831958,-7005365,2,2,2,2
2025-09-03 13:05:32.030,-817102,-3903346,-1831988,-7005334,2,2,2,2
2025-09-03 13:05:32.030,-817120,-3903362,-1832005,-7005418,2,2,2,2
2025-09-03 13:05:32.030,-817144,-1822647,-1832064,-2802944,2,2,2,2
2025-09-03 13:05:32.030,-800519,-1806306,-1832077,-7005454,2,2,2,2
2025-09-03 13:05:32.031,-816906,-1806311,-3929233,-7005490,2,2,2,2
2025-09-03 13:05:32.031,-816907,-1806316,-3929236,-7005496,2,2,2,2
2025-09-03 13:05:32.031,-816912,-3903475,-1832120,-7005468,2,2,2,2
2025-09-03 13:05:32.031,-816996,-1822476,-1832173,-2803056,2,2,2,2
2025-09-03 13:05:32.032,-800630,-1806109,-1831938,-7005567,2,2,2,2
2025-09-03 13:05:32.032,-800641,-1806184,-1831952,-7005579,2,2,2,2
2025-09-03 13:05:32.032,-817046,-1806137,-3929189,-7005657,2,2,2,2
2025-09-03 13:05:32.033,-817129,-1822600,-1832051,-2811367,2,2,2,2
2025-09-03 13:05:32.033,-817129,-1822597,-1832048,-2811363,2,2,2,2
2025-09-03 13:05:32.033,-800702,-1806195,-1832037,-7005655,2,2,2,2
2025-09-03 13:05:32.033,-817050,-1806190,-1831975,-4908436,2,2,2,2
2025-09-03 13:05:32.034,-800670,-1806190,-1832044,-7005655,2,2,2,2
2025-09-03 13:05:32.034,-800741,-1806197,-1832047,-7005659,2,2,2,2
2025-09-03 13:05:32.034,-817116,-1806186,-1831971,-7005582,2,2,2,2
2025-09-03 13:05:32.034,-817121,-1822507,-1831968,-7005585,2,2,2,2
2025-09-03 13:05:32.035,-817129,-1806131,-1832039,-7005660,2,2,2,2
2025-09-03 13:05:32.035,-817115,-1806181,-1831965,-7005580,2,2,2,2
2025-09-03 13:05:32.036,-817023,-1806089,-1831940,-7005555,2,2,2,2
2025-09-03 13:05:32.036,-817002,-1806322,-1832175,-7005504,2,2,2,2
