Timestamp,Ch1,Ch2,Ch3,Ch4,Ch5,Ch6,Ch7,Ch8
2025-09-03 13:38:56.413,-521468,-583681,-583907,-558102,2,2,2,2
2025-09-03 13:38:56.415,-521463,-583584,-583833,-558085,2,2,2,2
2025-09-03 13:38:56.418,-521348,-583543,-575595,-558297,2,2,2,2
2025-09-03 13:38:56.421,-521618,-583740,-584052,-574661,2,2,2,2
2025-09-03 13:38:56.423,-521576,-575520,-583964,-558217,2,2,2,2
2025-09-03 13:38:56.426,-521455,-583652,-583836,-558097,2,2,2,2
2025-09-03 13:38:56.429,-521478,-583684,-583931,-558190,2,2,2,2
2025-09-03 13:38:56.432,-521697,-583882,-584066,-574707,2,2,2,2
2025-09-03 13:38:56.434,-521719,-583913,-575901,-558334,2,2,2,2
2025-09-03 13:38:56.437,-521592,-583733,-584041,-574650,2,2,2,2
2025-09-03 13:38:56.439,-521447,-583641,-583839,-574466,2,2,2,2
2025-09-03 13:38:56.442,-521501,-583695,-583942,-574587,2,2,2,2
2025-09-03 13:38:56.445,-521456,-583581,-583898,-558093,2,2,2,2
2025-09-03 13:38:56.448,-521458,-583648,-583831,-574477,2,2,2,2
2025-09-03 13:38:56.451,-521486,-583687,-583940,-558127,2,2,2,2
2025-09-03 13:38:56.454,-521368,-583565,-583814,-558331,2,2,2,2
2025-09-03 13:38:56.456,-521240,-575242,-583935,-558191,2,2,2,2
2025-09-03 13:38:56.459,-521468,-575473,-583907,-558100,2,2,2,2
2025-09-03 13:38:56.462,-521437,-583562,-583813,-558329,2,2,2,2
2025-09-03 13:38:56.464,-521417,-583552,-583799,-558312,2,2,2,2
2025-09-03 13:38:56.467,-521446,-575379,-583883,-558321,2,2,2,2
2025-09-03 13:38:56.470,-521445,-583606,-583819,-574457,2,2,2,2
2025-09-03 13:38:56.473,-521472,-583663,-583916,-558110,2,2,2,2
2025-09-03 13:38:56.476,-521234,-583433,-583928,-558121,2,2,2,2
2025-09-03 13:38:56.478,-521465,-583665,-583871,-558099,2,2,2,2
2025-09-03 13:38:56.481,-521340,-583535,-583703,-558216,2,2,2,2
2025-09-03 13:38:56.484,-521446,-583629,-583809,-574462,2,2,2,2
2025-09-03 13:38:56.486,-521358,-583617,-583788,-574413,2,2,2,2
2025-09-03 13:38:56.489,-521236,-583677,-583924,-574509,2,2,2,2
2025-09-03 13:38:56.492,-521220,-583665,-583921,-558103,2,2,2,2
2025-09-03 13:38:56.495,-521236,-583676,-583919,-574494,2,2,2,2
2025-09-03 13:38:56.498,-521485,-583675,-583911,-574528,2,2,2,2
2025-09-03 13:38:56.501,-521623,-583815,-584059,-558320,2,2,2,2
2025-09-03 13:38:56.503,-521400,-583545,-583795,-558309,2,2,2,2
2025-09-03 13:38:56.506,-521330,-583440,-583693,-574589,2,2,2,2
2025-09-03 13:38:56.509,-521444,-575365,-583874,-558067,2,2,2,2
2025-09-03 13:38:56.511,-521278,-583455,-583710,-558226,2,2,2,2
2025-09-03 13:38:56.514,-521577,-583697,-583956,-574515,2,2,2,2
2025-09-03 13:38:56.517,-521376,-583567,-583812,-558318,2,2,2,2
2025-09-03 13:38:56.519,-521458,-583632,-583817,-574715,2,2,2,2
2025-09-03 13:38:56.522,-521349,-575329,-583713,-558229,2,2,2,2
2025-09-03 13:38:56.525,-521278,-583528,-583783,-558221,2,2,2,2
2025-09-03 13:38:56.527,-521429,-583549,-583803,-558310,2,2,2,2
2025-09-03 13:38:56.530,-521457,-583575,-575635,-558084,2,2,2,2
2025-09-03 13:38:56.533,-521326,-583440,-583685,-558197,2,2,2,2
2025-09-03 13:38:56.536,-521456,-583631,-583821,-574712,2,2,2,2
2025-09-03 13:38:56.539,-521449,-583562,-583810,-558321,2,2,2,2
2025-09-03 13:38:56.542,-521590,-583704,-575768,-558279,2,2,2,2
2025-09-03 13:38:56.545,-521705,-583822,-584070,-558321,2,2,2,2
2025-09-03 13:38:56.548,-521487,-583655,-583905,-574518,2,2,2,2
2025-09-03 13:38:56.551,-521325,-583432,-583682,-574575,2,2,2,2
2025-09-03 13:38:56.554,-521365,-583542,-583796,-557977,2,2,2,2
2025-09-03 13:38:56.557,-521437,-583546,-583732,-558049,2,2,2,2
2025-09-03 13:38:56.559,-521457,-583572,-583884,-558073,2,2,2,2
2025-09-03 13:38:56.562,-521347,-583521,-575519,-558019,2,2,2,2
2025-09-03 13:38:56.565,-521444,-583540,-583816,-557984,2,2,2,2
2025-09-03 13:38:56.568,-521233,-583673,-583927,-574488,2,2,2,2
2025-09-03 13:38:56.571,-521339,-583450,-583703,-558017,2,2,2,2
2025-09-03 13:38:56.574,-521373,-583551,-583812,-558059,2,2,2,2
2025-09-03 13:38:56.577,-521465,-583636,-583831,-574480,2,2,2,2
2025-09-03 13:38:56.579,-521250,-583426,-583681,-558195,2,2,2,2
2025-09-03 13:38:56.582,-521237,-583668,-583911,-558110,2,2,2,2
2025-09-03 13:38:56.585,-521324,-583680,-583929,-558203,2,2,2,2
2025-09-03 13:38:56.588,-521457,-583559,-583820,-558333,2,2,2,2
2025-09-03 13:38:56.590,-521451,-583563,-583813,-558075,2,2,2,2
2025-09-03 13:38:56.593,-521353,-583468,-583788,-558043,2,2,2,2
2025-09-03 13:38:56.596,-521464,-583577,-583827,-558081,2,2,2,2
2025-09-03 13:38:56.598,-521218,-583640,-583826,-574462,2,2,2,2
2025-09-03 13:38:56.601,-521353,-583444,-583704,-558221,2,2,2,2
2025-09-03 13:38:56.604,-521316,-583673,-583936,-574579,2,2,2,2
2025-09-03 13:38:56.606,-521222,-583571,-583864,-558093,2,2,2,2
2025-09-03 13:38:56.610,-521365,-583449,-583712,-558236,2,2,2,2
2025-09-03 13:38:56.612,-521472,-583638,-583828,-574483,2,2,2,2
2025-09-03 13:38:56.615,-521315,-583668,-583917,-558190,2,2,2,2
2025-09-03 13:38:56.617,-521329,-583426,-575491,-558273,2,2,2,2
2025-09-03 13:38:56.620,-521425,-583452,-583736,-558225,2,2,2,2
2025-09-03 13:38:56.623,-521219,-583639,-583828,-574479,2,2,2,2
2025-09-03 13:38:56.626,-521452,-583558,-575613,-558078,2,2,2,2
2025-09-03 13:38:56.628,-521330,-583435,-583687,-574346,2,2,2,2
2025-09-03 13:38:56.631,-521337,-583445,-575508,-558029,2,2,2,2
2025-09-03 13:38:56.633,-521452,-583557,-583806,-574453,2,2,2,2
2025-09-03 13:38:56.636,-521343,-583442,-583693,-558020,2,2,2,2
2025-09-03 13:38:56.639,-521455,-583540,-583726,-558055,2,2,2,2
2025-09-03 13:38:56.642,-521326,-583421,-583674,-557940,2,2,2,2
2025-09-03 13:38:56.644,-521443,-583542,-583807,-557984,2,2,2,2
2025-09-03 13:38:56.647,-521230,-583660,-575715,-558096,2,2,2,2
2025-09-03 13:38:56.650,-521438,-583544,-583797,-558238,2,2,2,2
2025-09-03 13:38:56.652,-521426,-583544,-583724,-558235,2,2,2,2
2025-09-03 13:38:56.655,-521328,-583447,-583691,-558284,2,2,2,2
2025-09-03 13:38:56.658,-521366,-583544,-575585,-558307,2,2,2,2
2025-09-03 13:38:56.660,-521585,-583711,-583942,-574598,2,2,2,2
2025-09-03 13:38:56.663,-521586,-583717,-583953,-574602,2,2,2,2
2025-09-03 13:38:56.666,-521707,-583817,-584000,-558332,2,2,2,2
2025-09-03 13:38:56.669,-521692,-583810,-583982,-558309,2,2,2,2
2025-09-03 13:38:56.672,-521702,-575636,-584138,-558337,2,2,2,2
2025-09-03 13:38:56.675,-521720,-583915,-584164,-558357,2,2,2,2
2025-09-03 13:38:56.677,-521724,-583881,-584093,-574736,2,2,2,2
2025-09-03 13:38:56.680,-521528,-583780,-583958,-558475,2,2,2,2
2025-09-03 13:38:56.683,-521608,-583796,-583967,-558561,2,2,2,2
2025-09-03 13:38:56.685,-521687,-583827,-584055,-558327,2,2,2,2
2025-09-03 13:38:56.689,-521699,-583823,-584064,-558337,2,2,2,2
2025-09-03 13:38:56.691,-521500,-583707,-583944,-558276,2,2,2,2
2025-09-03 13:38:56.694,-521609,-583811,-584049,-558309,2,2,2,2
2025-09-03 13:38:56.697,-521456,-583666,-583832,-574484,2,2,2,2
2025-09-03 13:38:56.699,-521469,-583678,-583869,-558178,2,2,2,2
2025-09-03 13:38:56.702,-521573,-583796,-583958,-558218,2,2,2,2
2025-09-03 13:38:56.705,-521595,-583816,-584051,-558317,2,2,2,2
2025-09-03 13:38:56.708,-521569,-583721,-583958,-574603,2,2,2,2
2025-09-03 13:38:56.710,-521474,-583702,-583931,-574518,2,2,2,2
2025-09-03 13:38:56.713,-521248,-583533,-583735,-558227,2,2,2,2
2025-09-03 13:38:56.716,-521504,-583726,-583952,-574676,2,2,2,2
2025-09-03 13:38:56.718,-521272,-583575,-583729,-558326,2,2,2,2
2025-09-03 13:38:56.721,-521250,-583556,-583716,-558237,2,2,2,2
2025-09-03 13:38:56.724,-521245,-583617,-583704,-574606,2,2,2,2
2025-09-03 13:38:56.727,-521277,-583650,-583736,-558327,2,2,2,2
2025-09-03 13:38:56.730,-521414,-583690,-575641,-558117,2,2,2,2
2025-09-03 13:38:56.733,-521241,-583562,-583703,-558236,2,2,2,2
2025-09-03 13:38:56.736,-521264,-583652,-583797,-558327,2,2,2,2
2025-09-03 13:38:56.738,-521239,-583621,-583710,-574691,2,2,2,2
2025-09-03 13:38:56.741,-521222,-583502,-583686,-574597,2,2,2,2
2025-09-03 13:38:56.744,-521367,-583446,-583834,-574494,2,2,2,2
2025-09-03 13:38:56.746,-521463,-583468,-583930,-574662,2,2,2,2
2025-09-03 13:38:56.749,-521429,-583434,-583911,-558110,2,2,2,2
2025-09-03 13:38:56.752,-521454,-583522,-583927,-558204,2,2,2,2
2025-09-03 13:38:56.755,-521219,-583467,-583690,-574598,2,2,2,2
2025-09-03 13:38:56.758,-521450,-583470,-583932,-558139,2,2,2,2
2025-09-03 13:38:56.761,-521330,-583665,-583804,-558079,2,2,2,2
2025-09-03 13:38:56.763,-521266,-583660,-583734,-558077,2,2,2,2
2025-09-03 13:38:56.766,-521345,-583672,-575627,-558094,2,2,2,2
2025-09-03 13:38:56.769,-521372,-575256,-583911,-558185,2,2,2,2
2025-09-03 13:38:56.771,-521319,-583652,-583794,-574466,2,2,2,2
2025-09-03 13:38:56.774,-521438,-583453,-583912,-558199,2,2,2,2
2025-09-03 13:38:56.777,-521335,-583660,-583797,-558082,2,2,2,2
2025-09-03 13:38:56.779,-521448,-583716,-583912,-574582,2,2,2,2
2025-09-03 13:38:56.782,-521572,-583832,-583964,-558318,2,2,2,2
2025-09-03 13:38:56.786,-521330,-583667,-583733,-558097,2,2,2,2
2025-09-03 13:38:56.788,-521228,-583630,-583700,-574701,2,2,2,2
2025-09-03 13:38:56.791,-521335,-583671,-583800,-574474,2,2,2,2
2025-09-03 13:38:56.793,-521321,-583653,-583785,-574705,2,2,2,2
2025-09-03 13:38:56.796,-521457,-583788,-583916,-558206,2,2,2,2
2025-09-03 13:38:56.799,-521497,-583835,-583961,-558312,2,2,2,2
2025-09-03 13:38:56.802,-521351,-583695,-575618,-558103,2,2,2,2
2025-09-03 13:38:56.804,-521347,-583695,-583812,-574561,2,2,2,2
2025-09-03 13:38:56.807,-521227,-575457,-583697,-558310,2,2,2,2
2025-09-03 13:38:56.810,-521243,-575461,-583709,-558323,2,2,2,2
2025-09-03 13:38:56.812,-521373,-583717,-583906,-574585,2,2,2,2
2025-09-03 13:38:56.815,-521260,-583684,-583735,-558085,2,2,2,2
2025-09-03 13:38:56.818,-521226,-583579,-583700,-558307,2,2,2,2
2025-09-03 13:38:56.820,-521279,-583449,-583877,-558180,2,2,2,2
2025-09-03 13:38:56.823,-521355,-583495,-583909,-574573,2,2,2,2
2025-09-03 13:38:56.826,-521443,-583546,-583930,-558211,2,2,2,2
2025-09-03 13:38:56.828,-521227,-583659,-583705,-574705,2,2,2,2
2025-09-03 13:38:56.831,-521456,-583568,-583927,-558291,2,2,2,2
2025-09-03 13:38:56.834,-521398,-583543,-583913,-558133,2,2,2,2
2025-09-03 13:38:56.837,-521269,-583448,-583805,-558100,2,2,2,2
2025-09-03 13:38:56.840,-521188,-583630,-583664,-558023,2,2,2,2
2025-09-03 13:38:56.843,-521220,-583657,-583702,-558055,2,2,2,2
2025-09-03 13:38:56.845,-521191,-583631,-583672,-574354,2,2,2,2
2025-09-03 13:38:56.848,-521367,-583619,-583836,-574521,2,2,2,2
2025-09-03 13:38:56.851,-521442,-583617,-583917,-558144,2,2,2,2
2025-09-03 13:38:56.853,-521472,-583655,-583697,-558309,2,2,2,2
2025-09-03 13:38:56.856,-521346,-583551,-583838,-558197,2,2,2,2
2025-09-03 13:38:56.859,-521230,-583679,-583715,-558078,2,2,2,2
2025-09-03 13:38:56.862,-521236,-583680,-583780,-558077,2,2,2,2
2025-09-03 13:38:56.864,-521453,-583642,-583935,-574645,2,2,2,2
2025-09-03 13:38:56.867,-521228,-583680,-583709,-558329,2,2,2,2
2025-09-03 13:38:56.870,-521233,-583684,-583785,-558083,2,2,2,2
2025-09-03 13:38:56.873,-521229,-583685,-583799,-558093,2,2,2,2
2025-09-03 13:38:56.875,-521454,-575387,-583689,-558236,2,2,2,2
2025-09-03 13:38:56.878,-521335,-583782,-583817,-558108,2,2,2,2
2025-09-03 13:38:56.881,-521441,-583820,-583931,-558286,2,2,2,2
2025-09-03 13:38:56.884,-521332,-583788,-583893,-558196,2,2,2,2
2025-09-03 13:38:56.886,-521441,-583892,-583929,-574622,2,2,2,2
2025-09-03 13:38:56.889,-521221,-583680,-583748,-558091,2,2,2,2
2025-09-03 13:38:56.892,-521410,-583542,-583894,-558213,2,2,2,2
2025-09-03 13:38:56.895,-521470,-583674,-575515,-558086,2,2,2,2
2025-09-03 13:38:56.898,-521237,-583689,-583789,-558103,2,2,2,2
2025-09-03 13:38:56.900,-521445,-583650,-583932,-574658,2,2,2,2
2025-09-03 13:38:56.903,-521324,-583528,-583824,-558196,2,2,2,2
2025-09-03 13:38:56.906,-521247,-583486,-583811,-558185,2,2,2,2
2025-09-03 13:38:56.908,-521272,-583535,-583885,-558196,2,2,2,2
2025-09-03 13:38:56.911,-521446,-583618,-583936,-574702,2,2,2,2
2025-09-03 13:38:56.914,-521250,-583783,-583820,-558189,2,2,2,2
2025-09-03 13:38:56.917,-521451,-583657,-583935,-558311,2,2,2,2
2025-09-03 13:38:56.920,-521355,-583632,-583905,-574605,2,2,2,2
2025-09-03 13:38:56.922,-521414,-583667,-583935,-558304,2,2,2,2
2025-09-03 13:38:56.925,-521277,-583564,-583878,-558208,2,2,2,2
2025-09-03 13:38:56.928,-521427,-583580,-583924,-558223,2,2,2,2
2025-09-03 13:38:56.931,-521341,-583552,-575640,-558132,2,2,2,2
2025-09-03 13:38:56.933,-521458,-583676,-583698,-574690,2,2,2,2
2025-09-03 13:38:56.936,-521331,-575359,-583890,-558187,2,2,2,2
2025-09-03 13:38:56.939,-521227,-583694,-583788,-558332,2,2,2,2
2025-09-03 13:38:56.942,-521321,-583792,-583814,-558110,2,2,2,2
2025-09-03 13:38:56.945,-521262,-583802,-583821,-558186,2,2,2,2
2025-09-03 13:38:56.948,-521450,-583924,-583943,-558305,2,2,2,2
2025-09-03 13:38:56.950,-521498,-583784,-584054,-558363,2,2,2,2
2025-09-03 13:38:56.953,-521452,-583919,-583947,-558307,2,2,2,2
2025-09-03 13:38:56.956,-521350,-575373,-583901,-558198,2,2,2,2
2025-09-03 13:38:56.958,-521336,-583538,-583814,-558178,2,2,2,2
2025-09-03 13:38:56.961,-521217,-575493,-583695,-558322,2,2,2,2
2025-09-03 13:38:56.963,-521272,-583809,-583823,-558177,2,2,2,2
2025-09-03 13:38:56.966,-521349,-583891,-583905,-574582,2,2,2,2
2025-09-03 13:38:56.969,-521347,-583825,-583836,-558130,2,2,2,2
2025-09-03 13:38:56.972,-521342,-583818,-583890,-558184,2,2,2,2
2025-09-03 13:38:56.974,-521352,-583834,-583900,-558198,2,2,2,2
2025-09-03 13:38:56.977,-521222,-583712,-583780,-574716,2,2,2,2
2025-09-03 13:38:56.980,-521246,-583811,-583743,-558091,2,2,2,2
2025-09-03 13:38:56.983,-521343,-583898,-583905,-574566,2,2,2,2
2025-09-03 13:38:56.986,-521252,-583805,-583806,-558100,2,2,2,2
2025-09-03 13:38:56.988,-521470,-583706,-583712,-574670,2,2,2,2
2025-09-03 13:38:56.991,-521424,-583905,-583911,-558200,2,2,2,2
2025-09-03 13:38:56.994,-521427,-583922,-583930,-558217,2,2,2,2
2025-09-03 13:38:56.996,-521467,-583705,-583962,-558317,2,2,2,2
2025-09-03 13:38:56.999,-521427,-583919,-583921,-558215,2,2,2,2
2025-09-03 13:38:57.001,-521223,-583744,-583778,-574719,2,2,2,2
2025-09-03 13:38:57.005,-521372,-583680,-583925,-558282,2,2,2,2
2025-09-03 13:38:57.007,-521339,-583648,-583836,-558124,2,2,2,2
2025-09-03 13:38:57.010,-521365,-583672,-583917,-558143,2,2,2,2
2025-09-03 13:38:57.013,-521265,-583834,-583830,-558184,2,2,2,2
2025-09-03 13:38:57.015,-521496,-583878,-584061,-574724,2,2,2,2
2025-09-03 13:38:57.019,-521585,-583916,-584142,-558449,2,2,2,2
2025-09-03 13:38:57.021,-521278,-583837,-575624,-558109,2,2,2,2
2025-09-03 13:38:57.024,-521464,-583711,-583697,-558317,2,2,2,2
2025-09-03 13:38:57.027,-521249,-583905,-583816,-558182,2,2,2,2
2025-09-03 13:38:57.030,-521230,-583820,-583873,-558107,2,2,2,2
2025-09-03 13:38:57.032,-521420,-583694,-583929,-558222,2,2,2,2
2025-09-03 13:38:57.035,-521248,-575463,-583886,-558100,2,2,2,2
2025-09-03 13:38:57.038,-521246,-583903,-583816,-574478,2,2,2,2
2025-09-03 13:38:57.040,-521441,-583712,-583695,-558224,2,2,2,2
2025-09-03 13:38:57.043,-521223,-583825,-583741,-558330,2,2,2,2
2025-09-03 13:38:57.046,-521314,-583652,-583898,-558104,2,2,2,2
2025-09-03 13:38:57.049,-521220,-583825,-583800,-558328,2,2,2,2
2025-09-03 13:38:57.052,-521253,-583661,-583900,-558110,2,2,2,2
2025-09-03 13:38:57.054,-521236,-583620,-583821,-558093,2,2,2,2
2025-09-03 13:38:57.057,-521230,-583636,-583817,-574475,2,2,2,2
2025-09-03 13:38:57.060,-521193,-583549,-583758,-558064,2,2,2,2
2025-09-03 13:38:57.063,-521102,-583456,-583694,-558038,2,2,2,2
2025-09-03 13:38:57.066,-521229,-583573,-583888,-558106,2,2,2,2
2025-09-03 13:38:57.068,-521459,-583817,-583742,-558089,2,2,2,2
2025-09-03 13:38:57.071,-521442,-583812,-583725,-558329,2,2,2,2
2025-09-03 13:38:57.073,-521469,-583837,-575625,-558096,2,2,2,2
2025-09-03 13:38:57.077,-521453,-583822,-575875,-558337,2,2,2,2
2025-09-03 13:38:57.079,-521240,-583682,-583928,-558204,2,2,2,2
2025-09-03 13:38:57.082,-521446,-583822,-575609,-558087,2,2,2,2
2025-09-03 13:38:57.085,-521239,-575739,-583910,-558200,2,2,2,2
2025-09-03 13:38:57.088,-521462,-583835,-583820,-558108,2,2,2,2
2025-09-03 13:38:57.090,-521472,-583918,-583838,-558190,2,2,2,2
2025-09-03 13:38:57.093,-521361,-583799,-584043,-558327,2,2,2,2
2025-09-03 13:38:57.096,-521338,-583728,-583960,-574693,2,2,2,2
2025-09-03 13:38:57.098,-521396,-583811,-575596,-558083,2,2,2,2
2025-09-03 13:38:57.101,-521354,-583801,-575592,-558334,2,2,2,2
2025-09-03 13:38:57.104,-521239,-583680,-583885,-558214,2,2,2,2
2025-09-03 13:38:57.107,-521197,-583659,-583886,-558181,2,2,2,2
2025-09-03 13:38:57.110,-521235,-575741,-583908,-558207,2,2,2,2
2025-09-03 13:38:57.112,-521339,-583756,-583958,-558309,2,2,2,2
2025-09-03 13:38:57.115,-521354,-583792,-583965,-558327,2,2,2,2
2025-09-03 13:38:57.118,-521333,-583698,-575756,-558292,2,2,2,2
2025-09-03 13:38:57.121,-521346,-583790,-583959,-558318,2,2,2,2
2025-09-03 13:38:57.123,-521477,-575738,-584165,-558454,2,2,2,2
2025-09-03 13:38:57.126,-521443,-583829,-584068,-558352,2,2,2,2
2025-09-03 13:38:57.128,-521409,-583787,-583964,-558311,2,2,2,2
2025-09-03 13:38:57.132,-521367,-583805,-583739,-558332,2,2,2,2
2025-09-03 13:38:57.134,-521349,-583786,-583789,-558315,2,2,2,2
2025-09-03 13:38:57.137,-521259,-583696,-583691,-558218,2,2,2,2
2025-09-03 13:38:57.140,-521450,-583822,-583875,-558086,2,2,2,2
2025-09-03 13:38:57.142,-521271,-583918,-575725,-558116,2,2,2,2
2025-09-03 13:38:57.145,-521247,-583697,-583936,-558209,2,2,2,2
2025-09-03 13:38:57.148,-521338,-575596,-583967,-558240,2,2,2,2
2025-09-03 13:38:57.150,-521439,-583822,-584067,-558338,2,2,2,2
2025-09-03 13:38:57.153,-521340,-583735,-584052,-574694,2,2,2,2
2025-09-03 13:38:57.156,-521334,-583786,-584049,-558240,2,2,2,2
2025-09-03 13:38:57.158,-521317,-583742,-583953,-558216,2,2,2,2
2025-09-03 13:38:57.161,-521324,-575600,-583962,-558227,2,2,2,2
2025-09-03 13:38:57.164,-521331,-583795,-583967,-558297,2,2,2,2
2025-09-03 13:38:57.167,-521364,-575642,-584134,-558332,2,2,2,2
2025-09-03 13:38:57.170,-521490,-583947,-584190,-574800,2,2,2,2
2025-09-03 13:38:57.173,-521332,-583716,-583957,-574645,2,2,2,2
2025-09-03 13:38:57.176,-521345,-583729,-583785,-558306,2,2,2,2
2025-09-03 13:38:57.178,-521275,-583694,-575745,-558273,2,2,2,2
2025-09-03 13:38:57.181,-521463,-583910,-583898,-558104,2,2,2,2
2025-09-03 13:38:57.183,-521420,-583915,-575636,-558109,2,2,2,2
2025-09-03 13:38:57.186,-521236,-583704,-583691,-558214,2,2,2,2
2025-09-03 13:38:57.189,-521120,-583654,-583900,-558098,2,2,2,2
2025-09-03 13:38:57.191,-521333,-583793,-575520,-558304,2,2,2,2
2025-09-03 13:38:57.194,-521467,-583692,-583921,-558131,2,2,2,2
2025-09-03 13:38:57.197,-521359,-583824,-584132,-558328,2,2,2,2
2025-09-03 13:38:57.200,-521398,-583909,-584088,-558359,2,2,2,2
2025-09-03 13:38:57.203,-521245,-583781,-583954,-558221,2,2,2,2
2025-09-03 13:38:57.205,-521344,-583879,-583802,-558329,2,2,2,2
2025-09-03 13:38:57.208,-521351,-583815,-584064,-558331,2,2,2,2
2025-09-03 13:38:57.211,-521433,-583839,-584157,-558353,2,2,2,2
2025-09-03 13:38:57.213,-521467,-583933,-575987,-558384,2,2,2,2
2025-09-03 13:38:57.216,-521460,-583931,-584172,-558433,2,2,2,2
2025-09-03 13:38:57.218,-521473,-583936,-584192,-574800,2,2,2,2
2025-09-03 13:38:57.222,-521313,-583788,-584040,-558303,2,2,2,2
2025-09-03 13:38:57.224,-521417,-583831,-583887,-558081,2,2,2,2
2025-09-03 13:38:57.227,-521469,-583682,-583933,-558190,2,2,2,2
2025-09-03 13:38:57.230,-521317,-575604,-583978,-558230,2,2,2,2
2025-09-03 13:38:57.233,-521222,-583705,-583939,-558204,2,2,2,2
2025-09-03 13:38:57.235,-521464,-583696,-583938,-558193,2,2,2,2
2025-09-03 13:38:57.238,-521247,-583793,-583966,-558217,2,2,2,2
2025-09-03 13:38:57.241,-521348,-583901,-584074,-574710,2,2,2,2
2025-09-03 13:38:57.243,-521217,-583695,-583940,-574519,2,2,2,2
2025-09-03 13:38:57.246,-521324,-575618,-583726,-558308,2,2,2,2
2025-09-03 13:38:57.249,-521441,-583915,-583865,-558096,2,2,2,2
2025-09-03 13:38:57.251,-521462,-583687,-583926,-558113,2,2,2,2
2025-09-03 13:38:57.254,-521291,-583804,-575595,-558301,2,2,2,2
2025-09-03 13:38:57.257,-521104,-583581,-583825,-558088,2,2,2,2
2025-09-03 13:38:57.260,-521181,-583664,-583906,-558093,2,2,2,2
2025-09-03 13:38:57.262,-521322,-583812,-583789,-558297,2,2,2,2
2025-09-03 13:38:57.265,-521458,-583691,-583914,-558179,2,2,2,2
2025-09-03 13:38:57.268,-521348,-583836,-583873,-558326,2,2,2,2
2025-09-03 13:38:57.270,-521458,-583699,-575740,-558139,2,2,2,2
2025-09-03 13:38:57.273,-521230,-583784,-583701,-558216,2,2,2,2
2025-09-03 13:38:57.276,-521197,-583693,-583925,-574513,2,2,2,2
2025-09-03 13:38:57.278,-521228,-583780,-583697,-558207,2,2,2,2
2025-09-03 13:38:57.281,-521105,-583668,-583831,-558095,2,2,2,2
2025-09-03 13:38:57.284,-521200,-583686,-583914,-574562,2,2,2,2
2025-09-03 13:38:57.287,-521317,-575616,-583722,-558229,2,2,2,2
2025-09-03 13:38:57.290,-521215,-583707,-583685,-558201,2,2,2,2
2025-09-03 13:38:57.292,-521433,-583924,-583868,-558097,2,2,2,2
2025-09-03 13:38:57.295,-521246,-583797,-583963,-558224,2,2,2,2
2025-09-03 13:38:57.297,-521453,-583932,-583917,-558110,2,2,2,2
2025-09-03 13:38:57.300,-521468,-583709,-583935,-558203,2,2,2,2
2025-09-03 13:38:57.302,-521332,-583822,-575857,-558313,2,2,2,2
2025-09-03 13:38:57.305,-521368,-575726,-583893,-558098,2,2,2,2
2025-09-03 13:38:57.308,-521368,-583921,-583836,-574483,2,2,2,2
2025-09-03 13:38:57.311,-521441,-583694,-583920,-558115,2,2,2,2
2025-09-03 13:38:57.314,-521348,-583916,-583817,-574715,2,2,2,2
2025-09-03 13:38:57.316,-521333,-575635,-583741,-558314,2,2,2,2
2025-09-03 13:38:57.319,-521414,-583688,-583913,-558177,2,2,2,2
2025-09-03 13:38:57.322,-521429,-583922,-583833,-558105,2,2,2,2
2025-09-03 13:38:57.324,-521218,-583711,-583943,-558274,2,2,2,2
2025-09-03 13:38:57.327,-521434,-583684,-583911,-558179,2,2,2,2
2025-09-03 13:38:57.330,-521451,-583697,-583924,-558183,2,2,2,2
2025-09-03 13:38:57.332,-521356,-583918,-583891,-558088,2,2,2,2
2025-09-03 13:38:57.335,-521320,-583868,-583801,-558321,2,2,2,2
2025-09-03 13:38:57.338,-521359,-575740,-583892,-558098,2,2,2,2
2025-09-03 13:38:57.341,-521343,-583923,-584076,-574715,2,2,2,2
2025-09-03 13:38:57.344,-521495,-584064,-583994,-558489,2,2,2,2
2025-09-03 13:38:57.347,-521496,-584077,-583966,-558553,2,2,2,2
2025-09-03 13:38:57.349,-521330,-583907,-584053,-574698,2,2,2,2
2025-09-03 13:38:57.352,-521243,-583821,-583963,-558229,2,2,2,2
2025-09-03 13:38:57.355,-521338,-583907,-575876,-558327,2,2,2,2
2025-09-03 13:38:57.357,-521369,-583959,-584176,-574787,2,2,2,2
2025-09-03 13:38:57.360,-521447,-583964,-584176,-558445,2,2,2,2
2025-09-03 13:38:57.363,-521446,-583964,-584136,-558442,2,2,2,2
2025-09-03 13:38:57.366,-521613,-583937,-584156,-558357,2,2,2,2
2025-09-03 13:38:57.368,-521656,-583953,-575982,-558384,2,2,2,2
2025-09-03 13:38:57.371,-521604,-584186,-584080,-558351,2,2,2,2
2025-09-03 13:38:57.374,-521712,-584054,-584198,-558465,2,2,2,2
2025-09-03 13:38:57.377,-521699,-584035,-584176,-558447,2,2,2,2
2025-09-03 13:38:57.379,-521722,-584056,-584209,-558473,2,2,2,2
2025-09-03 13:38:57.382,-521710,-584054,-584200,-558469,2,2,2,2
2025-09-03 13:38:57.384,-521720,-583995,-584208,-574900,2,2,2,2
2025-09-03 13:38:57.387,-521704,-584047,-584199,-558464,2,2,2,2
2025-09-03 13:38:57.390,-521598,-575995,-584395,-558608,2,2,2,2
2025-09-03 13:38:57.392,-521529,-584190,-584336,-558599,2,2,2,2
2025-09-03 13:38:57.395,-521476,-584113,-584294,-558491,2,2,2,2
2025-09-03 13:38:57.398,-521502,-584171,-583995,-558579,2,2,2,2
2025-09-03 13:38:57.401,-521669,-584038,-584194,-558443,2,2,2,2
2025-09-03 13:38:57.403,-521605,-583950,-584167,-558366,2,2,2,2
2025-09-03 13:38:57.406,-521703,-583995,-584216,-558545,2,2,2,2
2025-09-03 13:38:57.409,-521477,-584083,-584289,-558486,2,2,2,2
2025-09-03 13:38:57.411,-521481,-584155,-584302,-574869,2,2,2,2
2025-09-03 13:38:57.414,-521574,-584193,-584330,-574973,2,2,2,2
2025-09-03 13:38:57.417,-521481,-584093,-576105,-558568,2,2,2,2
2025-09-03 13:38:57.419,-521687,-584051,-584202,-558471,2,2,2,2
2025-09-03 13:38:57.422,-521348,-584010,-584189,-558455,2,2,2,2
2025-09-03 13:38:57.425,-521451,-584116,-583966,-558478,2,2,2,2
2025-09-03 13:38:57.428,-521675,-584040,-584186,-558450,2,2,2,2
2025-09-03 13:38:57.431,-521581,-584212,-584420,-575034,2,2,2,2
2025-09-03 13:38:57.433,-521517,-584210,-584418,-558620,2,2,2,2
2025-09-03 13:38:57.436,-521487,-584183,-584325,-558587,2,2,2,2
2025-09-03 13:38:57.439,-521602,-584045,-584188,-558384,2,2,2,2
2025-09-03 13:38:57.441,-521627,-584066,-584207,-558477,2,2,2,2
2025-09-03 13:38:57.444,-521586,-583957,-584165,-574788,2,2,2,2
2025-09-03 13:38:57.447,-521465,-575896,-583969,-558489,2,2,2,2
2025-09-03 13:38:57.449,-521670,-584051,-584143,-558441,2,2,2,2
2025-09-03 13:38:57.452,-521473,-584159,-584300,-574946,2,2,2,2
2025-09-03 13:38:57.455,-521625,-584324,-584193,-558649,2,2,2,2
2025-09-03 13:38:57.457,-521605,-584038,-584175,-558440,2,2,2,2
2025-09-03 13:38:57.460,-521534,-584039,-584181,-558442,2,2,2,2
2025-09-03 13:38:57.463,-521499,-583945,-584071,-558346,2,2,2,2
2025-09-03 13:38:57.466,-521251,-583957,-584122,-558361,2,2,2,2
2025-09-03 13:38:57.469,-521342,-584054,-584182,-558444,2,2,2,2
2025-09-03 13:38:57.471,-521345,-584049,-575988,-558383,2,2,2,2
2025-09-03 13:38:57.475,-521224,-583927,-575866,-558322,2,2,2,2
2025-09-03 13:38:57.477,-521237,-583689,-583821,-574473,2,2,2,2
2025-09-03 13:38:57.480,-521353,-583804,-583928,-558195,2,2,2,2
2025-09-03 13:38:57.482,-521334,-583737,-583914,-574563,2,2,2,2
2025-09-03 13:38:57.485,-521455,-575735,-583974,-558240,2,2,2,2
2025-09-03 13:38:57.487,-521466,-583942,-584059,-558578,2,2,2,2
2025-09-03 13:38:57.490,-521454,-584161,-583964,-574912,2,2,2,2
2025-09-03 13:38:57.493,-521532,-584056,-584142,-558450,2,2,2,2
2025-09-03 13:38:57.495,-521488,-584212,-584328,-574984,2,2,2,2
2025-09-03 13:38:57.498,-521702,-584425,-584223,-558814,2,2,2,2
2025-09-03 13:38:57.500,-521734,-584207,-584320,-558840,2,2,2,2
2025-09-03 13:38:57.503,-521683,-584349,-584206,-558731,2,2,2,2
2025-09-03 13:38:57.506,-521700,-584141,-584301,-574877,2,2,2,2
2025-09-03 13:38:57.508,-521610,-584146,-584195,-574899,2,2,2,2
2025-09-03 13:38:57.511,-521518,-584042,-584140,-558452,2,2,2,2
2025-09-03 13:38:57.514,-521459,-584139,-584043,-558578,2,2,2,2
2025-09-03 13:38:57.517,-521334,-583992,-584180,-574844,2,2,2,2
2025-09-03 13:38:57.519,-521226,-583957,-584078,-574731,2,2,2,2
2025-09-03 13:38:57.522,-521447,-583911,-584049,-574703,2,2,2,2
2025-09-03 13:38:57.524,-521353,-584138,-583942,-574849,2,2,2,2
2025-09-03 13:38:57.527,-521344,-584134,-583937,-574843,2,2,2,2
2025-09-03 13:38:57.529,-521649,-584079,-576017,-558539,2,2,2,2
2025-09-03 13:38:57.532,-521715,-584182,-584307,-574962,2,2,2,2
2025-09-03 13:38:57.534,-521619,-584134,-584197,-574852,2,2,2,2
2025-09-03 13:38:57.537,-521450,-584176,-584044,-558567,2,2,2,2
2025-09-03 13:38:57.540,-521416,-584079,-583937,-558463,2,2,2,2
2025-09-03 13:38:57.543,-521494,-584039,-584090,-558362,2,2,2,2
2025-09-03 13:38:57.545,-521515,-584061,-584170,-558439,2,2,2,2
2025-09-03 13:38:57.548,-521501,-584046,-584091,-558365,2,2,2,2
2025-09-03 13:38:57.550,-521692,-584168,-584222,-558563,2,2,2,2
2025-09-03 13:38:57.553,-521499,-584040,-584160,-558437,2,2,2,2
2025-09-03 13:38:57.556,-521525,-584077,-584187,-558459,2,2,2,2
2025-09-03 13:38:57.559,-521513,-584062,-584186,-558454,2,2,2,2
2025-09-03 13:38:57.562,-521611,-584153,-584220,-574867,2,2,2,2
2025-09-03 13:38:57.564,-521498,-583993,-584172,-558367,2,2,2,2
2025-09-03 13:38:57.567,-521510,-584068,-584181,-558453,2,2,2,2
2025-09-03 13:38:57.570,-521581,-584142,-584199,-558397,2,2,2,2
2025-09-03 13:38:57.573,-521603,-584167,-584227,-558475,2,2,2,2
2025-09-03 13:38:57.575,-521467,-583975,-584091,-574724,2,2,2,2
2025-09-03 13:38:57.578,-521456,-583954,-584068,-574962,2,2,2,2
2025-09-03 13:38:57.581,-521348,-584183,-583967,-558489,2,2,2,2
2025-09-03 13:38:57.584,-521353,-584140,-584036,-574946,2,2,2,2
2025-09-03 13:38:57.586,-521444,-583944,-584052,-558583,2,2,2,2
2025-09-03 13:38:57.589,-521482,-584046,-584165,-558360,2,2,2,2
2025-09-03 13:38:57.592,-521478,-583991,-584172,-574773,2,2,2,2
2025-09-03 13:38:57.594,-521594,-584422,-584214,-558730,2,2,2,2
2025-09-03 13:38:57.597,-521571,-584333,-584447,-558709,2,2,2,2
2025-09-03 13:38:57.599,-521723,-584292,-584400,-558601,2,2,2,2
2025-09-03 13:38:57.602,-521710,-584217,-584323,-558834,2,2,2,2
2025-09-03 13:38:57.605,-521667,-584436,-584233,-558737,2,2,2,2
2025-09-03 13:38:57.607,-521498,-584325,-584436,-575076,2,2,2,2
2025-09-03 13:38:57.610,-521706,-584217,-584334,-558597,2,2,2,2
2025-09-03 13:38:57.613,-521702,-584222,-584402,-558605,2,2,2,2
2025-09-03 13:38:57.616,-521575,-584372,-584199,-558711,2,2,2,2
2025-09-03 13:38:57.619,-521537,-584078,-584206,-558454,2,2,2,2
2025-09-03 13:38:57.621,-521492,-584330,-584433,-558691,2,2,2,2
2025-09-03 13:38:57.624,-521713,-584226,-584341,-558596,2,2,2,2
2025-09-03 13:38:57.627,-521619,-584196,-584310,-558822,2,2,2,2
2025-09-03 13:38:57.629,-521629,-584206,-584317,-575211,2,2,2,2
2025-09-03 13:38:57.632,-521726,-584315,-584426,-575005,2,2,2,2
2025-09-03 13:38:57.635,-521575,-584408,-584205,-575109,2,2,2,2
2025-09-03 13:38:57.637,-521500,-584085,-584204,-558467,2,2,2,2
2025-09-03 13:38:57.641,-521578,-584163,-584220,-558479,2,2,2,2
2025-09-03 13:38:57.643,-521708,-584306,-576157,-558603,2,2,2,2
2025-09-03 13:38:57.646,-521510,-584426,-584205,-558723,2,2,2,2
2025-09-03 13:38:57.649,-521616,-584201,-584303,-558824,2,2,2,2
2025-09-03 13:38:57.652,-521569,-584343,-584197,-558645,2,2,2,2
2025-09-03 13:38:57.654,-521703,-584301,-584398,-558600,2,2,2,2
2025-09-03 13:38:57.657,-521569,-584343,-584200,-558724,2,2,2,2
2025-09-03 13:38:57.659,-521492,-576148,-584198,-558702,2,2,2,2
2025-09-03 13:38:57.662,-521581,-584427,-584211,-575099,2,2,2,2
2025-09-03 13:38:57.665,-521719,-584328,-584417,-558608,2,2,2,2
2025-09-03 13:38:57.668,-521673,-584209,-584239,-558486,2,2,2,2
2025-09-03 13:38:57.670,-521477,-584079,-584185,-558362,2,2,2,2
2025-09-03 13:38:57.673,-521657,-584294,-576139,-558583,2,2,2,2
2025-09-03 13:38:57.676,-521677,-584217,-584318,-558565,2,2,2,2
2025-09-03 13:38:57.678,-521691,-584292,-584330,-558586,2,2,2,2
2025-09-03 13:38:57.681,-521492,-584348,-584197,-558697,2,2,2,2
2025-09-03 13:38:57.684,-521630,-584269,-584335,-574973,2,2,2,2
2025-09-03 13:38:57.687,-521273,-583942,-584003,-558485,2,2,2,2
2025-09-03 13:38:57.690,-521358,-583961,-584053,-558572,2,2,2,2
2025-09-03 13:38:57.692,-521369,-584035,-575867,-558580,2,2,2,2
2025-09-03 13:38:57.695,-521424,-584043,-584068,-558572,2,2,2,2
2025-09-03 13:38:57.698,-521245,-584186,-583956,-574845,2,2,2,2
2025-09-03 13:38:57.701,-521475,-584164,-584182,-558433,2,2,2,2
2025-09-03 13:38:57.703,-521229,-584165,-584186,-574797,2,2,2,2
2025-09-03 13:38:57.706,-521326,-583948,-583964,-558552,2,2,2,2
2025-09-03 13:38:57.709,-521328,-583946,-583966,-558562,2,2,2,2
2025-09-03 13:38:57.712,-521316,-584175,-583948,-574858,2,2,2,2
2025-09-03 13:38:57.714,-521269,-584192,-583968,-558484,2,2,2,2
2025-09-03 13:38:57.717,-521409,-583945,-583994,-558490,2,2,2,2
2025-09-03 13:38:57.720,-521353,-583954,-583985,-558572,2,2,2,2
2025-09-03 13:38:57.722,-521375,-575851,-584138,-558335,2,2,2,2
2025-09-03 13:38:57.725,-521315,-584183,-583956,-558474,2,2,2,2
2025-09-03 13:38:57.728,-521321,-583940,-583958,-558544,2,2,2,2
2025-09-03 13:38:57.731,-521489,-584176,-584182,-558387,2,2,2,2
2025-09-03 13:38:57.734,-521476,-584402,-584419,-575003,2,2,2,2
2025-09-03 13:38:57.736,-521500,-584189,-584207,-574922,2,2,2,2
2025-09-03 13:38:57.739,-521513,-584209,-584221,-558491,2,2,2,2
2025-09-03 13:38:57.741,-521448,-584063,-584116,-558356,2,2,2,2
2025-09-03 13:38:57.745,-521341,-575773,-583973,-558571,2,2,2,2
2025-09-03 13:38:57.747,-521460,-584143,-584161,-574783,2,2,2,2
2025-09-03 13:38:57.750,-521445,-584068,-584079,-558354,2,2,2,2
2025-09-03 13:38:57.753,-521432,-584063,-584136,-558356,2,2,2,2
2025-09-03 13:38:57.756,-521241,-584183,-583940,-558470,2,2,2,2
2025-09-03 13:38:57.758,-521457,-584073,-584087,-558364,2,2,2,2
2025-09-03 13:38:57.761,-521465,-575890,-584147,-558361,2,2,2,2
2025-09-03 13:38:57.764,-521428,-584052,-584042,-558581,2,2,2,2
2025-09-03 13:38:57.767,-521519,-584207,-584205,-558480,2,2,2,2
2025-09-03 13:38:57.769,-521492,-584185,-584186,-574852,2,2,2,2
2025-09-03 13:38:57.772,-521620,-584251,-584309,-574974,2,2,2,2
2025-09-03 13:38:57.775,-521482,-575969,-584170,-558450,2,2,2,2
2025-09-03 13:38:57.777,-521232,-584181,-584188,-558467,2,2,2,2
2025-09-03 13:38:57.780,-521450,-584154,-584095,-574747,2,2,2,2
2025-09-03 13:38:57.782,-521442,-584075,-584095,-558358,2,2,2,2
2025-09-03 13:38:57.785,-521244,-583940,-583988,-558478,2,2,2,2
2025-09-03 13:38:57.787,-521314,-583953,-583957,-558556,2,2,2,2
2025-09-03 13:38:57.790,-521343,-584044,-583984,-558578,2,2,2,2
2025-09-03 13:38:57.793,-521339,-584038,-583979,-558574,2,2,2,2
2025-09-03 13:38:57.796,-521492,-584191,-584202,-574851,2,2,2,2
2025-09-03 13:38:57.798,-521475,-584179,-584193,-558465,2,2,2,2
2025-09-03 13:38:57.801,-521470,-584173,-575988,-558389,2,2,2,2
2025-09-03 13:38:57.804,-521232,-583939,-575755,-558537,2,2,2,2
2025-09-03 13:38:57.807,-521413,-584046,-584063,-558591,2,2,2,2
2025-09-03 13:38:57.810,-521569,-584217,-584211,-574931,2,2,2,2
2025-09-03 13:38:57.813,-521591,-584313,-576111,-558576,2,2,2,2
2025-09-03 13:38:57.815,-521604,-584321,-584325,-574978,2,2,2,2
2025-09-03 13:38:57.818,-521570,-584250,-584216,-558488,2,2,2,2
2025-09-03 13:38:57.822,-521472,-584176,-584183,-574838,2,2,2,2
2025-09-03 13:38:57.824,-521421,-584166,-575973,-558372,2,2,2,2
2025-09-03 13:38:57.827,-521256,-584050,-584007,-558577,2,2,2,2
2025-09-03 13:38:57.829,-521266,-584054,-584049,-558576,2,2,2,2
2025-09-03 13:38:57.832,-521346,-584067,-584138,-558345,2,2,2,2
2025-09-03 13:38:57.835,-521369,-584164,-584167,-558440,2,2,2,2
2025-09-03 13:38:57.838,-521337,-584068,-584068,-558338,2,2,2,2
2025-09-03 13:38:57.841,-521233,-584034,-583971,-558565,2,2,2,2
2025-09-03 13:38:57.844,-521354,-584154,-584091,-574822,2,2,2,2
2025-09-03 13:38:57.846,-521419,-584161,-584086,-558368,2,2,2,2
2025-09-03 13:38:57.850,-521236,-583968,-583946,-558487,2,2,2,2
2025-09-03 13:38:57.852,-521317,-584043,-583958,-558316,2,2,2,2
2025-09-03 13:38:57.855,-521274,-584075,-584136,-558347,2,2,2,2
2025-09-03 13:38:57.857,-521465,-583958,-583941,-558544,2,2,2,2
2025-09-03 13:38:57.860,-521452,-584213,-584195,-574859,2,2,2,2
2025-09-03 13:38:57.863,-521330,-584084,-584067,-558339,2,2,2,2
2025-09-03 13:38:57.866,-521225,-583980,-583967,-574877,2,2,2,2
2025-09-03 13:38:57.869,-521444,-584183,-584181,-558445,2,2,2,2
2025-09-03 13:38:57.871,-521412,-584163,-584125,-558368,2,2,2,2
2025-09-03 13:38:57.874,-521191,-583949,-583949,-558219,2,2,2,2
2025-09-03 13:38:57.877,-521331,-584085,-584086,-558349,2,2,2,2
2025-09-03 13:38:57.880,-521344,-584096,-584146,-558354,2,2,2,2
2025-09-03 13:38:57.882,-521471,-584033,-575766,-558548,2,2,2,2
2025-09-03 13:38:57.885,-521227,-583992,-584039,-574956,2,2,2,2
2025-09-03 13:38:57.888,-521455,-583954,-583948,-558479,2,2,2,2
2025-09-03 13:38:57.891,-521279,-584068,-584066,-558343,2,2,2,2
2025-09-03 13:38:57.894,-521467,-584046,-584000,-558567,2,2,2,2
2025-09-03 13:38:57.897,-521375,-583952,-583950,-558468,2,2,2,2
2025-09-03 13:38:57.899,-521349,-584185,-584171,-558390,2,2,2,2
2025-09-03 13:38:57.902,-521243,-584091,-584139,-558363,2,2,2,2
2025-09-03 13:38:57.904,-521447,-584039,-583966,-558561,2,2,2,2
2025-09-03 13:38:57.907,-521372,-583948,-583951,-574866,2,2,2,2
2025-09-03 13:38:57.910,-521314,-584149,-584073,-574731,2,2,2,2
2025-09-03 13:38:57.912,-521451,-583958,-583957,-558483,2,2,2,2
2025-09-03 13:38:57.915,-521229,-584079,-584062,-558590,2,2,2,2
2025-09-03 13:38:57.918,-521428,-584208,-584202,-558472,2,2,2,2
2025-09-03 13:38:57.921,-521444,-576097,-584215,-558481,2,2,2,2
2025-09-03 13:38:57.924,-521336,-584181,-584174,-558449,2,2,2,2
2025-09-03 13:38:57.926,-521447,-584216,-584244,-558482,2,2,2,2
2025-09-03 13:38:57.929,-521245,-584084,-584086,-558350,2,2,2,2
2025-09-03 13:38:57.932,-521402,-584205,-576011,-558533,2,2,2,2
2025-09-03 13:38:57.934,-521450,-584290,-576027,-558551,2,2,2,2
2025-09-03 13:38:57.937,-521675,-584220,-576106,-558806,2,2,2,2
2025-09-03 13:38:57.939,-521591,-576234,-584441,-558694,2,2,2,2
2025-09-03 13:38:57.942,-521335,-575987,-584183,-558441,2,2,2,2
2025-09-03 13:38:57.945,-521349,-584189,-584191,-558452,2,2,2,2
2025-09-03 13:38:57.948,-521360,-584201,-584199,-574841,2,2,2,2
2025-09-03 13:38:57.951,-521620,-584448,-584448,-575093,2,2,2,2
2025-09-03 13:38:57.954,-521582,-584432,-584426,-558621,2,2,2,2
2025-09-03 13:38:57.956,-521323,-584133,-584096,-558357,2,2,2,2
2025-09-03 13:38:57.959,-521419,-584291,-584289,-558481,2,2,2,2
2025-09-03 13:38:57.962,-521463,-576104,-584235,-558490,2,2,2,2
2025-09-03 13:38:57.965,-521575,-584378,-584351,-558608,2,2,2,2
2025-09-03 13:38:57.967,-521484,-584386,-584326,-574962,2,2,2,2
2025-09-03 13:38:57.970,-521325,-584176,-584167,-558358,2,2,2,2
2025-09-03 13:38:57.973,-521413,-584221,-584221,-558540,2,2,2,2
2025-09-03 13:38:57.976,-521275,-584184,-584190,-558449,2,2,2,2
2025-09-03 13:38:57.979,-521326,-584165,-575970,-558365,2,2,2,2
2025-09-03 13:38:57.982,-521327,-584163,-584167,-574773,2,2,2,2
2025-09-03 13:38:57.984,-521344,-584192,-584190,-558445,2,2,2,2
2025-09-03 13:38:57.987,-521491,-584325,-584325,-558587,2,2,2,2
2025-09-03 13:38:57.989,-521343,-584193,-584187,-574833,2,2,2,2
2025-09-03 13:38:57.992,-521434,-583959,-583988,-558474,2,2,2,2
2025-09-03 13:38:57.995,-521504,-584375,-584352,-558617,2,2,2,2
2025-09-03 13:38:57.997,-521487,-584324,-576134,-558586,2,2,2,2
2025-09-03 13:38:58.000,-521368,-584200,-584204,-574860,2,2,2,2
2025-09-03 13:38:58.003,-521470,-584236,-584303,-558585,2,2,2,2
2025-09-03 13:38:58.006,-521359,-583990,-583962,-558485,2,2,2,2
2025-09-03 13:38:58.009,-521454,-583986,-584055,-558582,2,2,2,2
2025-09-03 13:38:58.012,-521438,-584223,-584258,-558484,2,2,2,2
2025-09-03 13:38:58.015,-521242,-584153,-584084,-574738,2,2,2,2
2025-09-03 13:38:58.017,-521406,-583966,-575776,-558555,2,2,2,2
2025-09-03 13:38:58.020,-521217,-584058,-584064,-558583,2,2,2,2
2025-09-03 13:38:58.023,-521450,-583977,-584049,-574950,2,2,2,2
2025-09-03 13:38:58.025,-521235,-584084,-584131,-558358,2,2,2,2
2025-09-03 13:38:58.028,-521463,-583992,-584061,-574964,2,2,2,2
2025-09-03 13:38:58.031,-521471,-583991,-584071,-574968,2,2,2,2
2025-09-03 13:38:58.034,-521265,-584089,-584183,-558437,2,2,2,2
2025-09-03 13:38:58.037,-521367,-584194,-584216,-558469,2,2,2,2
2025-09-03 13:38:58.040,-521477,-584311,-584323,-558581,2,2,2,2
2025-09-03 13:38:58.043,-521666,-584205,-584208,-558729,2,2,2,2
2025-09-03 13:38:58.045,-521595,-584446,-584448,-558645,2,2,2,2
2025-09-03 13:38:58.048,-521700,-584218,-584255,-558819,2,2,2,2
2025-09-03 13:38:58.051,-521592,-584435,-584448,-575105,2,2,2,2
2025-09-03 13:38:58.053,-521600,-584195,-584197,-558655,2,2,2,2
2025-09-03 13:38:58.056,-521375,-584207,-584291,-574905,2,2,2,2
2025-09-03 13:38:58.059,-521326,-584168,-584181,-558385,2,2,2,2
2025-09-03 13:38:58.062,-521271,-584086,-575901,-558375,2,2,2,2
2025-09-03 13:38:58.064,-521358,-584207,-576023,-558546,2,2,2,2
2025-09-03 13:38:58.067,-521441,-584294,-584303,-558568,2,2,2,2
2025-09-03 13:38:58.070,-521221,-584074,-584147,-558346,2,2,2,2
2025-09-03 13:38:58.073,-521231,-584083,-584165,-558361,2,2,2,2
2025-09-03 13:38:58.076,-521457,-584063,-584080,-558587,2,2,2,2
2025-09-03 13:38:58.078,-521233,-575973,-584177,-558362,2,2,2,2
2025-09-03 13:38:58.081,-521421,-584036,-584039,-558495,2,2,2,2
2025-09-03 13:38:58.084,-521223,-584118,-584090,-558354,2,2,2,2
2025-09-03 13:38:58.087,-521217,-584000,-584081,-574976,2,2,2,2
2025-09-03 13:38:58.089,-521374,-575772,-583972,-558491,2,2,2,2
2025-09-03 13:38:58.092,-521357,-584208,-584218,-558479,2,2,2,2
2025-09-03 13:38:58.095,-521417,-584202,-584242,-558469,2,2,2,2
2025-09-03 13:38:58.098,-521236,-584144,-584090,-574769,2,2,2,2
2025-09-03 13:38:58.101,-521346,-584194,-584202,-574861,2,2,2,2
2025-09-03 13:38:58.104,-521355,-584197,-584202,-558539,2,2,2,2
2025-09-03 13:38:58.106,-521453,-584292,-584225,-558568,2,2,2,2
2025-09-03 13:38:58.109,-521350,-584197,-576005,-558541,2,2,2,2
2025-09-03 13:38:58.112,-521461,-584252,-584310,-574977,2,2,2,2
2025-09-03 13:38:58.114,-521410,-584294,-584295,-558565,2,2,2,2
2025-09-03 13:38:58.117,-521375,-584210,-584218,-558550,2,2,2,2
2025-09-03 13:38:58.120,-521253,-584162,-584160,-558433,2,2,2,2
2025-09-03 13:38:58.123,-521221,-584133,-584072,-574724,2,2,2,2
2025-09-03 13:38:58.126,-521233,-584155,-584094,-558375,2,2,2,2
2025-09-03 13:38:58.129,-521376,-583968,-584034,-558577,2,2,2,2
2025-09-03 13:38:58.131,-521444,-584044,-584047,-558579,2,2,2,2
2025-09-03 13:38:58.134,-521245,-575982,-584165,-558444,2,2,2,2
2025-09-03 13:38:58.137,-521235,-584094,-584086,-558368,2,2,2,2
2025-09-03 13:38:58.139,-521444,-584062,-583989,-558586,2,2,2,2
2025-09-03 13:38:58.142,-521347,-584215,-584196,-558549,2,2,2,2
2025-09-03 13:38:58.145,-521364,-584229,-584224,-574957,2,2,2,2
2025-09-03 13:38:58.147,-521231,-575978,-584164,-558447,2,2,2,2
2025-09-03 13:38:58.150,-521456,-584064,-584056,-558591,2,2,2,2
2025-09-03 13:38:58.153,-521358,-584054,-584038,-558576,2,2,2,2
2025-09-03 13:38:58.156,-521338,-584007,-583954,-574872,2,2,2,2
2025-09-03 13:38:58.159,-521228,-575985,-584164,-558438,2,2,2,2
2025-09-03 13:38:58.161,-521269,-584185,-584169,-558460,2,2,2,2
2025-09-03 13:38:58.164,-521349,-576098,-584203,-558487,2,2,2,2
2025-09-03 13:38:58.166,-521416,-584289,-584207,-558492,2,2,2,2
2025-09-03 13:38:58.169,-521458,-575896,-584137,-558361,2,2,2,2
2025-09-03 13:38:58.171,-521363,-584305,-584219,-558568,2,2,2,2
2025-09-03 13:38:58.174,-521218,-584156,-584074,-574743,2,2,2,2
2025-09-03 13:38:58.177,-521357,-584312,-584221,-558579,2,2,2,2
2025-09-03 13:38:58.179,-521452,-584337,-584251,-558608,2,2,2,2
2025-09-03 13:38:58.182,-521448,-584334,-584316,-558603,2,2,2,2
2025-09-03 13:38:58.185,-521236,-584192,-584163,-558456,2,2,2,2
2025-09-03 13:38:58.188,-521219,-584182,-584080,-558437,2,2,2,2
2025-09-03 13:38:58.191,-521212,-584168,-584134,-558360,2,2,2,2
2025-09-03 13:38:58.194,-521345,-583986,-583964,-574915,2,2,2,2
2025-09-03 13:38:58.197,-521352,-584058,-575772,-558560,2,2,2,2
2025-09-03 13:38:58.199,-521081,-584057,-583957,-574617,2,2,2,2
2025-09-03 13:38:58.202,-521188,-584169,-584055,-574728,2,2,2,2
2025-09-03 13:38:58.204,-521116,-584158,-584060,-574720,2,2,2,2
2025-09-03 13:38:58.207,-521221,-583937,-584162,-574798,2,2,2,2
2025-09-03 13:38:58.210,-520970,-583935,-583909,-574577,2,2,2,2
2025-09-03 13:38:58.213,-521199,-584132,-584076,-558356,2,2,2,2
2025-09-03 13:38:58.216,-521343,-584046,-583961,-558486,2,2,2,2
2025-09-03 13:38:58.219,-521224,-584193,-584088,-558384,2,2,2,2
2025-09-03 13:38:58.221,-521423,-584417,-576124,-558604,2,2,2,2
2025-09-03 13:38:58.224,-521286,-584290,-575993,-558530,2,2,2,2
2025-09-03 13:38:58.227,-521482,-584193,-584348,-575089,2,2,2,2
2025-09-03 13:38:58.229,-521369,-584343,-584233,-558590,2,2,2,2
2025-09-03 13:38:58.232,-521436,-584344,-584310,-558604,2,2,2,2
2025-09-03 13:38:58.235,-521414,-584327,-584266,-558577,2,2,2,2
2025-09-03 13:38:58.238,-521235,-576031,-584177,-558470,2,2,2,2
2025-09-03 13:38:58.240,-521460,-584180,-584080,-558366,2,2,2,2
2025-09-03 13:38:58.243,-521255,-584298,-584181,-558490,2,2,2,2
2025-09-03 13:38:58.246,-521357,-584402,-584290,-574969,2,2,2,2
2025-09-03 13:38:58.249,-521459,-575995,-584134,-558436,2,2,2,2
2025-09-03 13:38:58.252,-521324,-584049,-584180,-558479,2,2,2,2
2025-09-03 13:38:58.255,-520983,-584039,-583883,-558206,2,2,2,2
2025-09-03 13:38:58.257,-520966,-583953,-575643,-558126,2,2,2,2
2025-09-03 13:38:58.261,-521209,-583939,-583820,-574487,2,2,2,2
2025-09-03 13:38:58.263,-520968,-583954,-583869,-558188,2,2,2,2
2025-09-03 13:38:58.266,-520984,-584045,-583914,-558131,2,2,2,2
2025-09-03 13:38:58.269,-520991,-575859,-583933,-558215,2,2,2,2
2025-09-03 13:38:58.271,-520992,-583994,-583939,-574599,2,2,2,2
2025-09-03 13:38:58.274,-521091,-575898,-583966,-558319,2,2,2,2
2025-09-03 13:38:58.276,-521168,-584096,-584014,-558331,2,2,2,2
2025-09-03 13:38:58.279,-521325,-575868,-583940,-558487,2,2,2,2
2025-09-03 13:38:58.282,-521340,-584113,-583966,-558568,2,2,2,2
2025-09-03 13:38:58.284,-521320,-584070,-583953,-558488,2,2,2,2
2025-09-03 13:38:58.287,-521231,-584045,-575989,-558533,2,2,2,2
2025-09-03 13:38:58.290,-521201,-584036,-584168,-558443,2,2,2,2
2025-09-03 13:38:58.293,-521450,-584207,-584087,-558367,2,2,2,2
2025-09-03 13:38:58.295,-521442,-584196,-584075,-558364,2,2,2,2
2025-09-03 13:38:58.298,-521327,-584351,-584293,-558573,2,2,2,2
2025-09-03 13:38:58.300,-521230,-584244,-584193,-558395,2,2,2,2
2025-09-03 13:38:58.303,-521353,-584162,-584058,-558585,2,2,2,2
2025-09-03 13:38:58.306,-521445,-584203,-584152,-558436,2,2,2,2
2025-09-03 13:38:58.308,-521235,-584063,-583945,-574866,2,2,2,2
2025-09-03 13:38:58.311,-521036,-584079,-575773,-558302,2,2,2,2
2025-09-03 13:38:58.314,-521116,-584192,-584075,-574734,2,2,2,2
2025-09-03 13:38:58.317,-521204,-583956,-584146,-558444,2,2,2,2
2025-09-03 13:38:58.319,-521213,-584036,-584168,-558454,2,2,2,2
2025-09-03 13:38:58.322,-521349,-584169,-584047,-558592,2,2,2,2
2025-09-03 13:38:58.325,-521349,-584171,-584048,-574962,2,2,2,2
2025-09-03 13:38:58.327,-521243,-584069,-583944,-558480,2,2,2,2
2025-09-03 13:38:58.330,-521236,-584326,-584192,-558460,2,2,2,2
2025-09-03 13:38:58.333,-521449,-584217,-584119,-558362,2,2,2,2
2025-09-03 13:38:58.336,-521315,-584328,-584210,-558489,2,2,2,2
2025-09-03 13:38:58.338,-521424,-584210,-575900,-558364,2,2,2,2
2025-09-03 13:38:58.341,-521351,-584433,-584310,-574966,2,2,2,2
2025-09-03 13:38:58.343,-521431,-584198,-584326,-558602,2,2,2,2
2025-09-03 13:38:58.346,-521451,-584194,-584335,-558604,2,2,2,2
2025-09-03 13:38:58.349,-521446,-584199,-584336,-558611,2,2,2,2
2025-09-03 13:38:58.351,-521245,-584323,-584207,-558470,2,2,2,2
2025-09-03 13:38:58.354,-521445,-584206,-584407,-558614,2,2,2,2
2025-09-03 13:38:58.357,-521471,-584312,-575991,-558397,2,2,2,2
2025-09-03 13:38:58.360,-521233,-584319,-584195,-558468,2,2,2,2
2025-09-03 13:38:58.363,-521327,-584127,-584039,-574874,2,2,2,2
2025-09-03 13:38:58.366,-521355,-584175,-584056,-574927,2,2,2,2
2025-09-03 13:38:58.368,-521273,-584417,-584299,-558571,2,2,2,2
2025-09-03 13:38:58.371,-521264,-584419,-584303,-558570,2,2,2,2
2025-09-03 13:38:58.373,-521314,-584403,-584221,-558551,2,2,2,2
2025-09-03 13:38:58.376,-521258,-584349,-584256,-558564,2,2,2,2
2025-09-03 13:38:58.379,-521267,-584349,-584259,-558493,2,2,2,2
2025-09-03 13:38:58.382,-521352,-584189,-575863,-558587,2,2,2,2
2025-09-03 13:38:58.384,-521462,-584224,-584094,-574747,2,2,2,2
2025-09-03 13:38:58.387,-521329,-584152,-583959,-574914,2,2,2,2
2025-09-03 13:38:58.389,-521172,-583947,-584075,-558355,2,2,2,2
2025-09-03 13:38:58.392,-521102,-584181,-575870,-558332,2,2,2,2
2025-09-03 13:38:58.395,-521219,-584051,-584180,-558458,2,2,2,2
2025-09-03 13:38:58.398,-521197,-575775,-584153,-558363,2,2,2,2
2025-09-03 13:38:58.401,-521177,-583950,-584070,-558353,2,2,2,2
2025-09-03 13:38:58.403,-521201,-583980,-584166,-574795,2,2,2,2
2025-09-03 13:38:58.406,-521331,-584416,-584291,-558562,2,2,2,2
2025-09-03 13:38:58.408,-521245,-584334,-584203,-558546,2,2,2,2
2025-09-03 13:38:58.411,-521279,-584446,-584246,-558592,2,2,2,2
2025-09-03 13:38:58.414,-521483,-584320,-584444,-575107,2,2,2,2
2025-09-03 13:38:58.417,-521591,-584432,-584295,-575220,2,2,2,2
2025-09-03 13:38:58.419,-521697,-584472,-584401,-558621,2,2,2,2
2025-09-03 13:38:58.423,-521470,-576121,-584432,-558720,2,2,2,2
2025-09-03 13:38:58.425,-521272,-584342,-584206,-558494,2,2,2,2
2025-09-03 13:38:58.428,-521278,-584435,-584263,-558590,2,2,2,2
2025-09-03 13:38:58.431,-521461,-584307,-584437,-558647,2,2,2,2
2025-09-03 13:38:58.433,-521337,-584441,-576114,-558590,2,2,2,2
2025-09-03 13:38:58.436,-521368,-584214,-584323,-558619,2,2,2,2
2025-09-03 13:38:58.438,-521442,-584222,-584154,-558437,2,2,2,2
2025-09-03 13:38:58.441,-521257,-584432,-584244,-558583,2,2,2,2
2025-09-03 13:38:58.443,-521224,-584333,-584202,-558476,2,2,2,2
2025-09-03 13:38:58.446,-521365,-584207,-584334,-575000,2,2,2,2
2025-09-03 13:38:58.449,-521606,-584454,-584325,-574984,2,2,2,2
2025-09-03 13:38:58.452,-521597,-584444,-584317,-558846,2,2,2,2
2025-09-03 13:38:58.454,-521697,-584480,-576158,-558634,2,2,2,2
2025-09-03 13:38:58.457,-521366,-584214,-584403,-558619,2,2,2,2
2025-09-03 13:38:58.460,-521291,-584429,-576099,-558582,2,2,2,2
2025-09-03 13:38:58.463,-521426,-584199,-584065,-558359,2,2,2,2
2025-09-03 13:38:58.465,-521274,-584187,-583983,-558584,2,2,2,2
2025-09-03 13:38:58.468,-521222,-584325,-584192,-558540,2,2,2,2
2025-09-03 13:38:58.471,-521457,-584306,-584175,-558460,2,2,2,2
2025-09-03 13:38:58.473,-521332,-584184,-584052,-574974,2,2,2,2
2025-09-03 13:38:58.476,-521209,-584068,-575988,-558398,2,2,2,2
2025-09-03 13:38:58.479,-521229,-584154,-583950,-574903,2,2,2,2
2025-09-03 13:38:58.481,-521247,-584177,-583968,-558566,2,2,2,2
2025-09-03 13:38:58.484,-521355,-584249,-584081,-558353,2,2,2,2
2025-09-03 13:38:58.487,-521335,-584193,-584248,-558607,2,2,2,2
2025-09-03 13:38:58.489,-521317,-584444,-584238,-558585,2,2,2,2
2025-09-03 13:38:58.492,-521421,-584213,-584338,-558616,2,2,2,2
2025-09-03 13:38:58.495,-521337,-584206,-584322,-574982,2,2,2,2
2025-09-03 13:38:58.497,-521229,-584382,-584213,-558495,2,2,2,2
2025-09-03 13:38:58.500,-521449,-584313,-584139,-558459,2,2,2,2
2025-09-03 13:38:58.502,-521234,-584170,-584035,-558568,2,2,2,2
2025-09-03 13:38:58.505,-521021,-583961,-584147,-558361,2,2,2,2
2025-09-03 13:38:58.508,-521248,-584190,-583992,-558591,2,2,2,2
2025-09-03 13:38:58.511,-521214,-584167,-583960,-558559,2,2,2,2
2025-09-03 13:38:58.514,-521238,-584179,-584034,-558573,2,2,2,2
2025-09-03 13:38:58.516,-521344,-584298,-575901,-558378,2,2,2,2
2025-09-03 13:38:58.519,-521445,-584334,-584192,-558466,2,2,2,2
2025-09-03 13:38:58.522,-521403,-584322,-575987,-558393,2,2,2,2
2025-09-03 13:38:58.524,-521316,-584202,-584311,-574979,2,2,2,2
2025-09-03 13:38:58.527,-521217,-584439,-576101,-558566,2,2,2,2
2025-09-03 13:38:58.529,-521344,-584227,-584348,-575008,2,2,2,2
2025-09-03 13:38:58.532,-521242,-576010,-584250,-558599,2,2,2,2
2025-09-03 13:38:58.534,-521413,-584309,-584422,-558710,2,2,2,2
2025-09-03 13:38:58.537,-521447,-584342,-584189,-558476,2,2,2,2
2025-09-03 13:38:58.540,-521198,-584175,-583954,-574872,2,2,2,2
2025-09-03 13:38:58.543,-521280,-584217,-584066,-558341,2,2,2,2
2025-09-03 13:38:58.546,-521443,-584344,-584199,-558463,2,2,2,2
2025-09-03 13:38:58.548,-521218,-584437,-584290,-574908,2,2,2,2
2025-09-03 13:38:58.551,-521347,-584313,-584427,-558690,2,2,2,2
2025-09-03 13:38:58.553,-521364,-584328,-584438,-558648,2,2,2,2
2025-09-03 13:38:58.556,-521441,-584336,-584446,-558719,2,2,2,2
2025-09-03 13:38:58.559,-521245,-584210,-584385,-558590,2,2,2,2
2025-09-03 13:38:58.561,-521237,-584206,-584321,-574974,2,2,2,2
2025-09-03 13:38:58.564,-521316,-584212,-584328,-574984,2,2,2,2
2025-09-03 13:38:58.567,-521453,-584420,-584211,-574900,2,2,2,2
2025-09-03 13:38:58.569,-521334,-584237,-584164,-574758,2,2,2,2
2025-09-03 13:38:58.572,-521245,-584208,-584075,-558339,2,2,2,2
2025-09-03 13:38:58.575,-521223,-584189,-583984,-558576,2,2,2,2
2025-09-03 13:38:58.577,-521313,-576013,-583997,-558343,2,2,2,2
2025-09-03 13:38:58.580,-521448,-584408,-584192,-574862,2,2,2,2
2025-09-03 13:38:58.583,-521355,-576131,-584174,-558455,2,2,2,2
2025-09-03 13:38:58.585,-521450,-584341,-584202,-558486,2,2,2,2
2025-09-03 13:38:58.588,-521422,-584312,-584179,-558452,2,2,2,2
2025-09-03 13:38:58.591,-521448,-584341,-576007,-558543,2,2,2,2
2025-09-03 13:38:58.594,-521375,-584401,-584194,-574920,2,2,2,2
2025-09-03 13:38:58.597,-521267,-584301,-584127,-558438,2,2,2,2
2025-09-03 13:38:58.600,-521454,-584402,-584208,-574863,2,2,2,2
2025-09-03 13:38:58.603,-521416,-584309,-584394,-558712,2,2,2,2
2025-09-03 13:38:58.606,-521465,-584345,-584213,-558488,2,2,2,2
2025-09-03 13:38:58.608,-521244,-584199,-584057,-558347,2,2,2,2
2025-09-03 13:38:58.611,-521366,-584244,-584178,-574843,2,2,2,2
2025-09-03 13:38:58.613,-521313,-576255,-584245,-558597,2,2,2,2
2025-09-03 13:38:58.616,-521321,-584196,-584311,-574979,2,2,2,2
2025-09-03 13:38:58.619,-521439,-584312,-584184,-558459,2,2,2,2
2025-09-03 13:38:58.622,-521219,-584417,-576024,-558564,2,2,2,2
2025-09-03 13:38:58.625,-521471,-584352,-584218,-558561,2,2,2,2
2025-09-03 13:38:58.628,-521350,-584233,-584341,-558631,2,2,2,2
2025-09-03 13:38:58.631,-521465,-584397,-584195,-575159,2,2,2,2
2025-09-03 13:38:58.634,-521375,-584386,-584426,-558655,2,2,2,2
2025-09-03 13:38:58.637,-521360,-584293,-584348,-558650,2,2,2,2
2025-09-03 13:38:58.639,-521421,-584297,-584412,-558716,2,2,2,2
2025-09-03 13:38:58.642,-521233,-584427,-584223,-558588,2,2,2,2
2025-09-03 13:38:58.644,-521461,-576143,-584198,-558564,2,2,2,2
2025-09-03 13:38:58.647,-521230,-584419,-584214,-558582,2,2,2,2
2025-09-03 13:38:58.650,-521374,-584314,-584170,-558535,2,2,2,2
2025-09-03 13:38:58.653,-521458,-584332,-584193,-558491,2,2,2,2
2025-09-03 13:38:58.655,-521349,-576099,-584415,-558712,2,2,2,2
2025-09-03 13:38:58.658,-521350,-584232,-584345,-575086,2,2,2,2
2025-09-03 13:38:58.660,-521349,-584229,-584338,-575055,2,2,2,2
2025-09-03 13:38:58.663,-521443,-584392,-584440,-575130,2,2,2,2
2025-09-03 13:38:58.666,-521351,-576105,-584413,-558712,2,2,2,2
2025-09-03 13:38:58.668,-521446,-584332,-584444,-558741,2,2,2,2
2025-09-03 13:38:58.671,-521472,-584422,-584217,-558585,2,2,2,2
2025-09-03 13:38:58.674,-521373,-576126,-584427,-558738,2,2,2,2
2025-09-03 13:38:58.677,-521398,-584306,-584422,-558728,2,2,2,2
2025-09-03 13:38:58.679,-521222,-584420,-584208,-558590,2,2,2,2
2025-09-03 13:38:58.682,-521461,-584391,-584182,-558555,2,2,2,2
2025-09-03 13:38:58.685,-521241,-584435,-584253,-558601,2,2,2,2
2025-09-03 13:38:58.688,-521454,-584328,-584187,-558570,2,2,2,2
2025-09-03 13:38:58.690,-521398,-584303,-575978,-558556,2,2,2,2
2025-09-03 13:38:58.693,-521266,-584445,-584313,-558700,2,2,2,2
2025-09-03 13:38:58.696,-521368,-584225,-584335,-575175,2,2,2,2
2025-09-03 13:38:58.698,-521488,-584421,-576022,-558847,2,2,2,2
2025-09-03 13:38:58.701,-521358,-584214,-584398,-558715,2,2,2,2
2025-09-03 13:38:58.704,-521455,-584398,-584193,-575217,2,2,2,2
2025-09-03 13:38:58.707,-521475,-584349,-584210,-558598,2,2,2,2
2025-09-03 13:38:58.710,-521483,-584386,-584214,-574982,2,2,2,2
2025-09-03 13:38:58.712,-521451,-584314,-584437,-558820,2,2,2,2
2025-09-03 13:38:58.715,-521465,-576142,-584199,-558830,2,2,2,2
2025-09-03 13:38:58.718,-521239,-584428,-584251,-558609,2,2,2,2
2025-09-03 13:38:58.721,-521460,-584319,-584189,-558562,2,2,2,2
2025-09-03 13:38:58.724,-521245,-584421,-584224,-574979,2,2,2,2
2025-09-03 13:38:58.726,-521375,-584300,-584172,-558482,2,2,2,2
2025-09-03 13:38:58.729,-521218,-584402,-584200,-574975,2,2,2,2
2025-09-03 13:38:58.732,-521232,-584427,-584223,-558616,2,2,2,2
2025-09-03 13:38:58.734,-521245,-584197,-584306,-558625,2,2,2,2
2025-09-03 13:38:58.737,-521447,-584320,-584181,-558563,2,2,2,2
2025-09-03 13:38:58.739,-521271,-584437,-576108,-558609,2,2,2,2
2025-09-03 13:38:58.742,-521449,-576126,-584175,-558491,2,2,2,2
2025-09-03 13:38:58.745,-521244,-584445,-584295,-558615,2,2,2,2
2025-09-03 13:38:58.748,-521360,-584249,-584351,-558787,2,2,2,2
2025-09-03 13:38:58.751,-521346,-584293,-584391,-558714,2,2,2,2
2025-09-03 13:38:58.753,-521230,-584431,-584215,-574983,2,2,2,2
2025-09-03 13:38:58.756,-521423,-584314,-584173,-558482,2,2,2,2
2025-09-03 13:38:58.759,-521354,-584290,-575973,-558549,2,2,2,2
2025-09-03 13:38:58.762,-521458,-584349,-584207,-558592,2,2,2,2
2025-09-03 13:38:58.765,-521458,-584347,-584206,-558581,2,2,2,2
2025-09-03 13:38:58.768,-521435,-584322,-584422,-558740,2,2,2,2
2025-09-03 13:38:58.770,-521317,-584206,-584318,-558699,2,2,2,2
2025-09-03 13:38:58.773,-521464,-584409,-584210,-574969,2,2,2,2
2025-09-03 13:38:58.776,-521235,-576243,-584235,-558615,2,2,2,2
2025-09-03 13:38:58.778,-521363,-584312,-584421,-558741,2,2,2,2
2025-09-03 13:38:58.781,-521484,-584434,-584291,-574996,2,2,2,2
2025-09-03 13:38:58.783,-521363,-584294,-584419,-558801,2,2,2,2
2025-09-03 13:38:58.786,-521457,-584341,-584207,-558597,2,2,2,2
2025-09-03 13:38:58.789,-521355,-576029,-584162,-558482,2,2,2,2
2025-09-03 13:38:58.792,-521268,-584436,-584301,-558619,2,2,2,2
2025-09-03 13:38:58.794,-521228,-584438,-584299,-558618,2,2,2,2
2025-09-03 13:38:58.797,-521313,-584193,-584322,-575090,2,2,2,2
2025-09-03 13:38:58.800,-521443,-584331,-584200,-558838,2,2,2,2
2025-09-03 13:38:58.803,-521342,-584220,-576149,-558796,2,2,2,2
2025-09-03 13:38:58.805,-521456,-584402,-584209,-574979,2,2,2,2
2025-09-03 13:38:58.808,-521325,-584206,-576123,-558643,2,2,2,2
2025-09-03 13:38:58.811,-521438,-584321,-584443,-558824,2,2,2,2
2025-09-03 13:38:58.814,-521470,-584405,-584204,-575226,2,2,2,2
2025-09-03 13:38:58.817,-521328,-584194,-584323,-558641,2,2,2,2
2025-09-03 13:38:58.820,-521464,-584379,-584211,-558604,2,2,2,2
2025-09-03 13:38:58.823,-521415,-584328,-584193,-558591,2,2,2,2
2025-09-03 13:38:58.825,-521428,-584314,-584143,-558574,2,2,2,2
2025-09-03 13:38:58.828,-521314,-584444,-584305,-558702,2,2,2,2
2025-09-03 13:38:58.831,-521227,-584423,-584263,-558621,2,2,2,2
2025-09-03 13:38:58.833,-521470,-584345,-584230,-558606,2,2,2,2
2025-09-03 13:38:58.836,-521277,-584199,-576138,-558655,2,2,2,2
2025-09-03 13:38:58.839,-521492,-584432,-584310,-558693,2,2,2,2
2025-09-03 13:38:58.842,-521468,-584346,-584290,-558607,2,2,2,2
2025-09-03 13:38:58.845,-521524,-584432,-576117,-558631,2,2,2,2
2025-09-03 13:38:58.847,-521464,-584346,-584230,-558601,2,2,2,2
2025-09-03 13:38:58.850,-521418,-584321,-576013,-558835,2,2,2,2
2025-09-03 13:38:58.852,-521452,-584324,-584250,-558848,2,2,2,2
2025-09-03 13:38:58.855,-521467,-584350,-584296,-558613,2,2,2,2
2025-09-03 13:38:58.858,-521488,-584437,-584321,-558695,2,2,2,2
2025-09-03 13:38:58.861,-521470,-584400,-584315,-575002,2,2,2,2
2025-09-03 13:38:58.863,-521313,-584202,-576151,-558785,2,2,2,2
2025-09-03 13:38:58.866,-521258,-584200,-584350,-558722,2,2,2,2
2025-09-03 13:38:58.869,-521279,-584303,-584439,-558743,2,2,2,2
2025-09-03 13:38:58.872,-521336,-584219,-584428,-558732,2,2,2,2
2025-09-03 13:38:58.874,-521330,-576097,-584430,-558733,2,2,2,2
2025-09-03 13:38:58.877,-521362,-576123,-584196,-558821,2,2,2,2
2025-09-03 13:38:58.880,-521372,-576125,-584203,-558831,2,2,2,2
2025-09-03 13:38:58.882,-521495,-584445,-584327,-575053,2,2,2,2
2025-09-03 13:38:58.885,-521468,-576232,-584243,-558609,2,2,2,2
2025-09-03 13:38:58.888,-521362,-584305,-584197,-558828,2,2,2,2
2025-09-03 13:38:58.891,-521244,-584439,-584327,-575093,2,2,2,2
2025-09-03 13:38:58.893,-521364,-584256,-584199,-558573,2,2,2,2
2025-09-03 13:38:58.896,-521450,-584343,-584226,-558606,2,2,2,2
2025-09-03 13:38:58.899,-521368,-584329,-584218,-558596,2,2,2,2
2025-09-03 13:38:58.902,-521232,-584185,-584083,-574774,2,2,2,2
2025-09-03 13:38:58.905,-521224,-584177,-584080,-574798,2,2,2,2
2025-09-03 13:38:58.907,-521331,-584224,-575988,-558555,2,2,2,2
2025-09-03 13:38:58.910,-521442,-584332,-584293,-558602,2,2,2,2
2025-09-03 13:38:58.912,-521471,-584426,-576134,-558635,2,2,2,2
2025-09-03 13:38:58.915,-521239,-584441,-584413,-558724,2,2,2,2
2025-09-03 13:38:58.918,-521317,-584196,-584352,-575111,2,2,2,2
2025-09-03 13:38:58.921,-521217,-584436,-584334,-558706,2,2,2,2
2025-09-03 13:38:58.923,-521234,-576256,-584415,-558731,2,2,2,2
2025-09-03 13:38:58.926,-521464,-584417,-584316,-558693,2,2,2,2
2025-09-03 13:38:58.928,-521234,-584431,-584334,-575034,2,2,2,2
2025-09-03 13:38:58.931,-521457,-584335,-576112,-558622,2,2,2,2
2025-09-03 13:38:58.934,-521359,-584310,-584214,-558585,2,2,2,2
2025-09-03 13:38:58.937,-521466,-584345,-584322,-558693,2,2,2,2
2025-09-03 13:38:58.939,-521368,-576123,-584228,-558602,2,2,2,2
2025-09-03 13:38:58.942,-521228,-584436,-584381,-558729,2,2,2,2
2025-09-03 13:38:58.945,-521251,-584204,-584434,-558746,2,2,2,2
2025-09-03 13:38:58.947,-521463,-584338,-584315,-558634,2,2,2,2
2025-09-03 13:38:58.950,-521320,-584197,-584176,-574877,2,2,2,2
2025-09-03 13:38:58.953,-521459,-576148,-584256,-558698,2,2,2,2
2025-09-03 13:38:58.955,-521235,-584173,-584085,-558472,2,2,2,2
2025-09-03 13:38:58.958,-521224,-584096,-584071,-558450,2,2,2,2
2025-09-03 13:38:58.961,-521068,-583940,-584173,-558549,2,2,2,2
2025-09-03 13:38:58.963,-521186,-584059,-584002,-558341,2,2,2,2
2025-09-03 13:38:58.966,-521316,-584190,-584177,-558544,2,2,2,2
2025-09-03 13:38:58.968,-521269,-584219,-584205,-558576,2,2,2,2
2025-09-03 13:38:58.971,-521368,-584308,-584291,-558604,2,2,2,2
2025-09-03 13:38:58.974,-521212,-584088,-584066,-558440,2,2,2,2
2025-09-03 13:38:58.976,-521204,-584079,-575873,-558366,2,2,2,2
2025-09-03 13:38:58.979,-521240,-584172,-584094,-574846,2,2,2,2
2025-09-03 13:38:58.982,-521175,-584042,-583967,-558338,2,2,2,2
2025-09-03 13:38:58.985,-521117,-575872,-583980,-558355,2,2,2,2
2025-09-03 13:38:58.987,-521148,-584066,-584058,-558356,2,2,2,2
2025-09-03 13:38:58.990,-520965,-584169,-584080,-558451,2,2,2,2
2025-09-03 13:38:58.993,-521166,-584033,-583994,-558580,2,2,2,2
2025-09-03 13:38:58.996,-521099,-584043,-583962,-558590,2,2,2,2
2025-09-03 13:38:58.998,-521156,-584034,-583957,-558587,2,2,2,2
2025-09-03 13:38:59.001,-521083,-575845,-583951,-558577,2,2,2,2
2025-09-03 13:38:59.004,-520971,-584176,-584174,-558529,2,2,2,2
2025-09-03 13:38:59.007,-521206,-584121,-584089,-574841,2,2,2,2
2025-09-03 13:38:59.010,-521073,-583965,-583955,-574921,2,2,2,2
2025-09-03 13:38:59.012,-521103,-584045,-584035,-558339,2,2,2,2
2025-09-03 13:38:59.015,-521204,-584080,-584070,-558435,2,2,2,2
2025-09-03 13:38:59.018,-521211,-584152,-584087,-574836,2,2,2,2
2025-09-03 13:38:59.021,-521098,-575853,-583983,-558344,2,2,2,2
2025-09-03 13:38:59.024,-520983,-584186,-584188,-558558,2,2,2,2
2025-09-03 13:38:59.026,-521000,-583943,-583946,-558315,2,2,2,2
2025-09-03 13:38:59.029,-521194,-584079,-575882,-558379,2,2,2,2
2025-09-03 13:38:59.032,-521213,-584163,-584168,-574851,2,2,2,2
2025-09-03 13:38:59.035,-521193,-584072,-584076,-558446,2,2,2,2
2025-09-03 13:38:59.038,-521084,-584038,-583976,-558588,2,2,2,2
2025-09-03 13:38:59.040,-521095,-584056,-575872,-558353,2,2,2,2
2025-09-03 13:38:59.044,-521115,-584069,-584069,-558374,2,2,2,2
2025-09-03 13:38:59.046,-521183,-584069,-584137,-558454,2,2,2,2
2025-09-03 13:38:59.049,-520989,-583934,-583938,-558313,2,2,2,2
2025-09-03 13:38:59.052,-521106,-575859,-583990,-558436,2,2,2,2
2025-09-03 13:38:59.054,-521063,-583947,-583952,-558334,2,2,2,2
2025-09-03 13:38:59.057,-520967,-575716,-583910,-558219,2,2,2,2
2025-09-03 13:38:59.059,-520953,-583896,-583906,-574589,2,2,2,2
2025-09-03 13:38:59.062,-520967,-583917,-583928,-558227,2,2,2,2
2025-09-03 13:38:59.065,-521182,-584070,-583999,-558433,2,2,2,2
2025-09-03 13:38:59.067,-521100,-584044,-584056,-558350,2,2,2,2
2025-09-03 13:38:59.070,-521106,-584049,-584058,-558364,2,2,2,2
2025-09-03 13:38:59.073,-521096,-583985,-584056,-574771,2,2,2,2
2025-09-03 13:38:59.075,-521013,-583935,-575754,-558308,2,2,2,2
2025-09-03 13:38:59.078,-521080,-583967,-583964,-574717,2,2,2,2
2025-09-03 13:38:59.081,-521092,-584045,-584050,-558352,2,2,2,2
2025-09-03 13:38:59.083,-521155,-584046,-583989,-558351,2,2,2,2
2025-09-03 13:38:59.086,-521149,-584062,-575883,-558380,2,2,2,2
2025-09-03 13:38:59.089,-521210,-584084,-584162,-558463,2,2,2,2
2025-09-03 13:38:59.091,-521083,-583950,-583959,-574972,2,2,2,2
2025-09-03 13:38:59.094,-521096,-584045,-584050,-558358,2,2,2,2
2025-09-03 13:38:59.097,-521171,-584055,-583994,-558359,2,2,2,2
2025-09-03 13:38:59.100,-521191,-584140,-584066,-574800,2,2,2,2
2025-09-03 13:38:59.103,-521111,-583991,-584061,-574751,2,2,2,2
2025-09-03 13:38:59.106,-521103,-584056,-575863,-558360,2,2,2,2
2025-09-03 13:38:59.108,-521095,-584043,-584041,-558339,2,2,2,2
2025-09-03 13:38:59.111,-521101,-584048,-575846,-558351,2,2,2,2
2025-09-03 13:38:59.113,-521057,-583944,-584190,-558570,2,2,2,2
2025-09-03 13:38:59.116,-521072,-575761,-583950,-558584,2,2,2,2
2025-09-03 13:38:59.119,-521195,-584076,-584075,-558437,2,2,2,2
2025-09-03 13:38:59.121,-521103,-583984,-584052,-574737,2,2,2,2
2025-09-03 13:38:59.124,-521210,-584167,-584137,-558470,2,2,2,2
2025-09-03 13:38:59.127,-521188,-584050,-584000,-558368,2,2,2,2
2025-09-03 13:38:59.129,-521163,-584071,-575883,-558379,2,2,2,2
2025-09-03 13:38:59.132,-521189,-584064,-584074,-558366,2,2,2,2
2025-09-03 13:38:59.135,-521214,-584158,-584095,-558532,2,2,2,2
2025-09-03 13:38:59.138,-521104,-584056,-584052,-558357,2,2,2,2
2025-09-03 13:38:59.140,-520967,-584156,-584170,-574864,2,2,2,2
2025-09-03 13:38:59.143,-520963,-584091,-584162,-558462,2,2,2,2
2025-09-03 13:38:59.146,-521206,-584150,-584090,-574842,2,2,2,2
2025-09-03 13:38:59.148,-521037,-584190,-583946,-558573,2,2,2,2
2025-09-03 13:38:59.151,-521215,-584083,-584166,-558469,2,2,2,2
2025-09-03 13:38:59.154,-520985,-584138,-584188,-558490,2,2,2,2
2025-09-03 13:38:59.157,-521215,-575895,-584171,-558472,2,2,2,2
2025-09-03 13:38:59.160,-521114,-583977,-584056,-574772,2,2,2,2
2025-09-03 13:38:59.162,-521211,-584090,-584126,-558467,2,2,2,2
2025-09-03 13:38:59.165,-521214,-584089,-584156,-558460,2,2,2,2
2025-09-03 13:38:59.168,-521197,-584051,-583994,-558442,2,2,2,2
2025-09-03 13:38:59.171,-521095,-584003,-584044,-558353,2,2,2,2
2025-09-03 13:38:59.174,-521195,-584068,-584141,-558456,2,2,2,2
2025-09-03 13:38:59.176,-521204,-575893,-584156,-558464,2,2,2,2
2025-09-03 13:38:59.179,-521038,-583948,-583959,-558585,2,2,2,2
2025-09-03 13:38:59.182,-521073,-583956,-583958,-574976,2,2,2,2
2025-09-03 13:38:59.184,-520965,-584160,-584166,-558556,2,2,2,2
2025-09-03 13:38:59.187,-521165,-584036,-584052,-558437,2,2,2,2
2025-09-03 13:38:59.190,-521065,-583938,-583958,-558339,2,2,2,2
2025-09-03 13:38:59.192,-520963,-584085,-584168,-558544,2,2,2,2
2025-09-03 13:38:59.195,-521100,-584034,-575858,-558367,2,2,2,2
2025-09-03 13:38:59.198,-521035,-584191,-583955,-558589,2,2,2,2
2025-09-03 13:38:59.200,-521164,-583960,-584043,-558358,2,2,2,2
2025-09-03 13:38:59.203,-521110,-584039,-583982,-558433,2,2,2,2
2025-09-03 13:38:59.206,-521196,-584067,-584086,-558468,2,2,2,2
2025-09-03 13:38:59.209,-521120,-583987,-584064,-574835,2,2,2,2
2025-09-03 13:38:59.212,-521102,-583975,-584045,-574757,2,2,2,2
2025-09-03 13:38:59.214,-521172,-584049,-583985,-558435,2,2,2,2
2025-09-03 13:38:59.217,-521216,-584090,-584164,-558488,2,2,2,2
2025-09-03 13:38:59.220,-521008,-584189,-583945,-558337,2,2,2,2
2025-09-03 13:38:59.223,-521192,-584067,-584082,-558544,2,2,2,2
2025-09-03 13:38:59.226,-520967,-584120,-584165,-558561,2,2,2,2
2025-09-03 13:38:59.228,-521089,-583963,-584044,-558360,2,2,2,2
2025-09-03 13:38:59.231,-521209,-584077,-584159,-558476,2,2,2,2
2025-09-03 13:38:59.233,-521317,-584170,-575996,-558574,2,2,2,2
2025-09-03 13:38:59.236,-521358,-584222,-584300,-575006,2,2,2,2
2025-09-03 13:38:59.239,-521205,-584136,-584084,-574854,2,2,2,2
2025-09-03 13:38:59.241,-521161,-583958,-584011,-558364,2,2,2,2
2025-09-03 13:38:59.244,-521210,-584072,-584152,-558482,2,2,2,2
2025-09-03 13:38:59.247,-521233,-584168,-584180,-558576,2,2,2,2
2025-09-03 13:38:59.249,-521210,-584073,-584089,-558485,2,2,2,2
2025-09-03 13:38:59.252,-521223,-584084,-575977,-558558,2,2,2,2
2025-09-03 13:38:59.255,-521063,-575999,-583953,-558344,2,2,2,2
2025-09-03 13:38:59.257,-521002,-583938,-583951,-558344,2,2,2,2
2025-09-03 13:38:59.260,-521215,-575886,-584158,-558562,2,2,2,2
2025-09-03 13:38:59.263,-521368,-584230,-584319,-575089,2,2,2,2
2025-09-03 13:38:59.266,-521320,-575987,-584203,-558595,2,2,2,2
2025-09-03 13:38:59.268,-521228,-584090,-584182,-558567,2,2,2,2
2025-09-03 13:38:59.271,-521189,-583987,-584073,-574843,2,2,2,2
2025-09-03 13:38:59.273,-521174,-583966,-584052,-558446,2,2,2,2
2025-09-03 13:38:59.276,-520990,-584161,-584186,-558567,2,2,2,2
2025-09-03 13:38:59.279,-521099,-584037,-575858,-558374,2,2,2,2
2025-09-03 13:38:59.282,-520979,-584169,-584184,-558573,2,2,2,2
2025-09-03 13:38:59.285,-520962,-584064,-584094,-558473,2,2,2,2
2025-09-03 13:38:59.288,-521199,-584056,-575897,-558531,2,2,2,2
2025-09-03 13:38:59.291,-521201,-583988,-584082,-574858,2,2,2,2
2025-09-03 13:38:59.294,-520992,-584170,-583948,-558588,2,2,2,2
2025-09-03 13:38:59.296,-521096,-583956,-584059,-558446,2,2,2,2
2025-09-03 13:38:59.299,-520972,-583889,-583921,-574660,2,2,2,2
2025-09-03 13:38:59.302,-521105,-583967,-584054,-574762,2,2,2,2
2025-09-03 13:38:59.305,-521102,-583951,-575864,-558371,2,2,2,2
2025-09-03 13:38:59.308,-521106,-583957,-584054,-574800,2,2,2,2
2025-09-03 13:38:59.311,-520985,-583908,-583937,-558334,2,2,2,2
2025-09-03 13:38:59.313,-521162,-583950,-583986,-558445,2,2,2,2
2025-09-03 13:38:59.316,-521186,-575851,-584141,-558477,2,2,2,2
2025-09-03 13:38:59.319,-520962,-584075,-584172,-558569,2,2,2,2
2025-09-03 13:38:59.322,-521188,-584052,-584080,-558476,2,2,2,2
2025-09-03 13:38:59.324,-521073,-584187,-575769,-558362,2,2,2,2
2025-09-03 13:38:59.327,-520986,-584122,-584191,-574967,2,2,2,2
2025-09-03 13:38:59.330,-521097,-583946,-584051,-574819,2,2,2,2
2025-09-03 13:38:59.333,-521200,-583988,-584083,-574858,2,2,2,2
2025-09-03 13:38:59.335,-521210,-584067,-584172,-558486,2,2,2,2
2025-09-03 13:38:59.338,-521174,-583957,-584137,-558456,2,2,2,2
2025-09-03 13:38:59.341,-521105,-583995,-584066,-558457,2,2,2,2
2025-09-03 13:38:59.344,-521227,-584095,-584193,-558574,2,2,2,2
2025-09-03 13:38:59.346,-521339,-584196,-584298,-575003,2,2,2,2
2025-09-03 13:38:59.349,-521199,-584054,-584091,-558469,2,2,2,2
2025-09-03 13:38:59.352,-521225,-584086,-584184,-558571,2,2,2,2
2025-09-03 13:38:59.355,-521230,-584152,-584195,-574960,2,2,2,2
2025-09-03 13:38:59.358,-521243,-584170,-584202,-558596,2,2,2,2
2025-09-03 13:38:59.361,-521185,-584050,-584133,-558462,2,2,2,2
2025-09-03 13:38:59.363,-521156,-584057,-584090,-558479,2,2,2,2
2025-09-03 13:38:59.366,-521111,-583995,-584072,-558455,2,2,2,2
2025-09-03 13:38:59.369,-521119,-583965,-584083,-558470,2,2,2,2
2025-09-03 13:38:59.371,-521196,-584048,-584160,-558489,2,2,2,2
2025-09-03 13:38:59.374,-521100,-583959,-584077,-558384,2,2,2,2
2025-09-03 13:38:59.377,-521027,-584180,-575769,-558353,2,2,2,2
2025-09-03 13:38:59.380,-521192,-584054,-584117,-558480,2,2,2,2
2025-09-03 13:38:59.382,-521326,-584186,-584215,-558610,2,2,2,2
2025-09-03 13:38:59.385,-521241,-584164,-584198,-574973,2,2,2,2
2025-09-03 13:38:59.388,-521340,-584200,-584238,-558617,2,2,2,2
2025-09-03 13:38:59.391,-521470,-576130,-584434,-558745,2,2,2,2
2025-09-03 13:38:59.394,-521376,-584297,-584342,-558721,2,2,2,2
2025-09-03 13:38:59.396,-521445,-584245,-584340,-575099,2,2,2,2
2025-09-03 13:38:59.399,-521470,-584329,-584431,-558743,2,2,2,2
2025-09-03 13:38:59.402,-521228,-584350,-576255,-558822,2,2,2,2
2025-09-03 13:38:59.405,-521459,-584392,-584428,-575190,2,2,2,2
2025-09-03 13:38:59.408,-521221,-584340,-584442,-558818,2,2,2,2
2025-09-03 13:38:59.410,-521232,-584418,-584199,-575213,2,2,2,2
2025-09-03 13:38:59.413,-521469,-584331,-576240,-558807,2,2,2,2
2025-09-03 13:38:59.415,-521455,-584252,-584351,-575110,2,2,2,2
2025-09-03 13:38:59.418,-521369,-576112,-584396,-558712,2,2,2,2
2025-09-03 13:38:59.421,-521257,-584192,-584268,-558608,2,2,2,2
2025-09-03 13:38:59.424,-521099,-583991,-584066,-574832,2,2,2,2
2025-09-03 13:38:59.426,-521104,-583967,-584070,-574830,2,2,2,2
2025-09-03 13:38:59.429,-521234,-584179,-584212,-558586,2,2,2,2
2025-09-03 13:38:59.431,-521113,-583980,-584076,-574839,2,2,2,2
2025-09-03 13:38:59.434,-520987,-584168,-583941,-558578,2,2,2,2
2025-09-03 13:38:59.436,-521285,-584184,-576025,-558603,2,2,2,2
2025-09-03 13:38:59.439,-521355,-584218,-584325,-575050,2,2,2,2
2025-09-03 13:38:59.441,-521270,-584197,-584261,-558621,2,2,2,2
2025-09-03 13:38:59.444,-521472,-584323,-584418,-558799,2,2,2,2
2025-09-03 13:38:59.447,-521470,-584334,-576236,-558810,2,2,2,2
2025-09-03 13:38:59.450,-521232,-584351,-584435,-558822,2,2,2,2
2025-09-03 13:38:59.452,-521230,-584144,-584176,-574946,2,2,2,2
2025-09-03 13:38:59.455,-521455,-584239,-584335,-575109,2,2,2,2
2025-09-03 13:38:59.458,-521235,-584160,-584187,-574961,2,2,2,2
2025-09-03 13:38:59.461,-521409,-584204,-584225,-558617,2,2,2,2
2025-09-03 13:38:59.463,-521459,-584316,-584349,-575128,2,2,2,2
2025-09-03 13:38:59.466,-521466,-584253,-584344,-575153,2,2,2,2
2025-09-03 13:38:59.469,-521375,-584294,-584317,-558721,2,2,2,2
2025-09-03 13:38:59.471,-521222,-584333,-584422,-558826,2,2,2,2
2025-09-03 13:38:59.474,-521373,-584297,-584329,-558720,2,2,2,2
2025-09-03 13:38:59.476,-521341,-584205,-584237,-558695,2,2,2,2
2025-09-03 13:38:59.479,-521459,-584325,-584349,-558817,2,2,2,2
2025-09-03 13:38:59.482,-521231,-584414,-584437,-575215,2,2,2,2
2025-09-03 13:38:59.484,-521357,-576097,-584249,-558698,2,2,2,2
2025-09-03 13:38:59.487,-521197,-584068,-584086,-558484,2,2,2,2
2025-09-03 13:38:59.490,-521118,-583991,-584071,-574850,2,2,2,2
2025-09-03 13:38:59.492,-521200,-584060,-575885,-558546,2,2,2,2
2025-09-03 13:38:59.495,-521216,-584076,-584161,-558560,2,2,2,2
2025-09-03 13:38:59.498,-521322,-584181,-576017,-558598,2,2,2,2
2025-09-03 13:38:59.500,-521274,-584199,-584223,-558623,2,2,2,2
2025-09-03 13:38:59.503,-521369,-584225,-584317,-575093,2,2,2,2
2025-09-03 13:38:59.506,-521106,-584038,-584065,-558455,2,2,2,2
2025-09-03 13:38:59.509,-521160,-583967,-583994,-558447,2,2,2,2
2025-09-03 13:38:59.511,-521073,-583937,-583954,-558359,2,2,2,2
2025-09-03 13:38:59.514,-521204,-584071,-584080,-558483,2,2,2,2
2025-09-03 13:38:59.517,-521231,-584163,-584142,-558572,2,2,2,2
2025-09-03 13:38:59.519,-521195,-584052,-584064,-558397,2,2,2,2
2025-09-03 13:38:59.522,-521092,-583951,-584041,-558437,2,2,2,2
2025-09-03 13:38:59.525,-521204,-583998,-584085,-574874,2,2,2,2
2025-09-03 13:38:59.528,-520975,-584150,-584168,-558582,2,2,2,2
2025-09-03 13:38:59.531,-521007,-584184,-583943,-558350,2,2,2,2
2025-09-03 13:38:59.533,-521188,-584047,-584134,-558460,2,2,2,2
2025-09-03 13:38:59.536,-521101,-583958,-575851,-558382,2,2,2,2
2025-09-03 13:38:59.539,-521190,-584041,-584134,-558474,2,2,2,2
2025-09-03 13:38:59.542,-521331,-584181,-584203,-574993,2,2,2,2
2025-09-03 13:38:59.545,-521291,-584442,-576256,-558597,2,2,2,2
2025-09-03 13:38:59.547,-521339,-584438,-584208,-558602,2,2,2,2
2025-09-03 13:38:59.550,-521457,-584237,-584325,-575111,2,2,2,2
2025-09-03 13:38:59.553,-521360,-584203,-584295,-558641,2,2,2,2
2025-09-03 13:38:59.555,-521373,-584295,-584330,-558796,2,2,2,2
2025-09-03 13:38:59.558,-521204,-584059,-584085,-558494,2,2,2,2
2025-09-03 13:38:59.561,-521233,-584081,-584162,-558583,2,2,2,2
2025-09-03 13:38:59.564,-521321,-584176,-584186,-558607,2,2,2,2
2025-09-03 13:38:59.566,-521372,-584302,-584309,-558787,2,2,2,2
2025-09-03 13:38:59.569,-521247,-584176,-584189,-558598,2,2,2,2
2025-09-03 13:38:59.572,-521354,-584258,-584296,-558711,2,2,2,2
2025-09-03 13:38:59.575,-521229,-584161,-584184,-574975,2,2,2,2
2025-09-03 13:38:59.577,-521066,-575751,-583947,-558360,2,2,2,2
2025-09-03 13:38:59.580,-521191,-584083,-584121,-558496,2,2,2,2
2025-09-03 13:38:59.582,-521114,-584054,-584071,-558400,2,2,2,2
2025-09-03 13:38:59.585,-521107,-584008,-584057,-558463,2,2,2,2
2025-09-03 13:38:59.588,-521107,-584042,-583999,-558478,2,2,2,2
2025-09-03 13:38:59.591,-520971,-584165,-584182,-558588,2,2,2,2
2025-09-03 13:38:59.594,-521063,-583939,-583952,-558362,2,2,2,2
2025-09-03 13:38:59.596,-521154,-584054,-584080,-558482,2,2,2,2
2025-09-03 13:38:59.599,-521088,-575766,-583985,-558448,2,2,2,2
2025-09-03 13:38:59.602,-521102,-583965,-584049,-558460,2,2,2,2
2025-09-03 13:38:59.605,-521189,-584060,-584071,-558561,2,2,2,2
2025-09-03 13:38:59.608,-521166,-584066,-584073,-558560,2,2,2,2
2025-09-03 13:38:59.611,-521174,-584034,-584060,-558461,2,2,2,2
2025-09-03 13:38:59.614,-521082,-583953,-583971,-558447,2,2,2,2
2025-09-03 13:38:59.616,-521188,-583996,-584084,-574877,2,2,2,2
2025-09-03 13:38:59.619,-521211,-575882,-584172,-558586,2,2,2,2
2025-09-03 13:38:59.621,-521158,-584034,-584059,-558473,2,2,2,2
2025-09-03 13:38:59.625,-521318,-584176,-584196,-558691,2,2,2,2
2025-09-03 13:38:59.627,-521267,-584166,-575998,-558607,2,2,2,2
2025-09-03 13:38:59.630,-521187,-584057,-584076,-558562,2,2,2,2
2025-09-03 13:38:59.633,-521224,-584085,-584177,-558593,2,2,2,2
2025-09-03 13:38:59.636,-521109,-584012,-584063,-574870,2,2,2,2
2025-09-03 13:38:59.638,-521316,-584187,-584204,-575049,2,2,2,2
2025-09-03 13:38:59.641,-521189,-584069,-584094,-558575,2,2,2,2
2025-09-03 13:38:59.644,-521224,-584086,-584173,-558605,2,2,2,2
2025-09-03 13:38:59.647,-521217,-584091,-584166,-558599,2,2,2,2
2025-09-03 13:38:59.649,-521161,-584033,-584067,-558494,2,2,2,2
2025-09-03 13:38:59.652,-521097,-575776,-583996,-558490,2,2,2,2
2025-09-03 13:38:59.655,-521022,-583958,-584016,-558477,2,2,2,2
2025-09-03 13:38:59.658,-521210,-584078,-584169,-558598,2,2,2,2
2025-09-03 13:38:59.661,-521195,-584071,-584095,-558582,2,2,2,2
2025-09-03 13:38:59.663,-521239,-584180,-584205,-558691,2,2,2,2
2025-09-03 13:38:59.666,-521369,-584312,-584399,-558828,2,2,2,2
2025-09-03 13:38:59.669,-521338,-584212,-584235,-558732,2,2,2,2
2025-09-03 13:38:59.672,-521330,-584213,-584299,-558789,2,2,2,2
2025-09-03 13:38:59.675,-521244,-584140,-584203,-558700,2,2,2,2
2025-09-03 13:38:59.678,-521324,-584185,-584219,-575097,2,2,2,2
2025-09-03 13:38:59.681,-521323,-584437,-584219,-558640,2,2,2,2
2025-09-03 13:38:59.684,-521334,-584203,-584310,-575105,2,2,2,2
2025-09-03 13:38:59.687,-521189,-583997,-584090,-574927,2,2,2,2
2025-09-03 13:38:59.689,-521090,-583957,-584054,-558541,2,2,2,2
2025-09-03 13:38:59.692,-521163,-584033,-584065,-558488,2,2,2,2
2025-09-03 13:38:59.695,-520973,-584171,-576000,-558363,2,2,2,2
2025-09-03 13:38:59.697,-521196,-584069,-584161,-558577,2,2,2,2
2025-09-03 13:38:59.700,-521234,-584171,-584192,-558620,2,2,2,2
2025-09-03 13:38:59.703,-521223,-584120,-584180,-558608,2,2,2,2
2025-09-03 13:38:59.706,-521102,-583979,-584068,-574917,2,2,2,2
2025-09-03 13:38:59.709,-520973,-575896,-584188,-558367,2,2,2,2
2025-09-03 13:38:59.711,-521210,-584086,-584179,-558362,2,2,2,2
2025-09-03 13:38:59.714,-521206,-584134,-584095,-574723,2,2,2,2
2025-09-03 13:38:59.717,-521209,-584076,-584171,-558358,2,2,2,2
2025-09-03 13:38:59.720,-520964,-584093,-584182,-558366,2,2,2,2
2025-09-03 13:38:59.723,-521058,-584181,-583961,-558400,2,2,2,2
2025-09-03 13:38:59.725,-521105,-583972,-584052,-574880,2,2,2,2
2025-09-03 13:38:59.728,-521225,-584086,-584169,-558620,2,2,2,2
2025-09-03 13:38:59.731,-521228,-584087,-584176,-558614,2,2,2,2
2025-09-03 13:38:59.734,-521219,-584392,-584427,-575002,2,2,2,2
2025-09-03 13:38:59.737,-521342,-584198,-576101,-558798,2,2,2,2
2025-09-03 13:38:59.739,-521315,-584167,-584207,-558707,2,2,2,2
2025-09-03 13:38:59.742,-521337,-584185,-576032,-558790,2,2,2,2
2025-09-03 13:38:59.745,-521224,-584068,-584143,-558602,2,2,2,2
2025-09-03 13:38:59.747,-521344,-584200,-584297,-575113,2,2,2,2
2025-09-03 13:38:59.750,-521314,-584163,-576003,-558621,2,2,2,2
2025-09-03 13:38:59.753,-521246,-584093,-584198,-558691,2,2,2,2
2025-09-03 13:38:59.755,-521201,-584131,-584161,-574974,2,2,2,2
2025-09-03 13:38:59.758,-520994,-584174,-583956,-558444,2,2,2,2
2025-09-03 13:38:59.761,-521232,-584162,-584195,-558622,2,2,2,2
2025-09-03 13:38:59.764,-521242,-584130,-584206,-575008,2,2,2,2
2025-09-03 13:38:59.767,-521105,-583966,-584067,-574909,2,2,2,2
2025-09-03 13:38:59.769,-521192,-584045,-584149,-558582,2,2,2,2
2025-09-03 13:38:59.772,-521216,-575887,-584167,-558354,2,2,2,2
2025-09-03 13:38:59.775,-521058,-584177,-583949,-574834,2,2,2,2
2025-09-03 13:38:59.777,-521070,-575988,-583958,-558460,2,2,2,2
2025-09-03 13:38:59.780,-521073,-584189,-584034,-574859,2,2,2,2
2025-09-03 13:38:59.782,-521109,-575768,-583998,-558561,2,2,2,2
2025-09-03 13:38:59.785,-521072,-575980,-583947,-558453,2,2,2,2
2025-09-03 13:38:59.788,-520987,-584161,-583943,-558453,2,2,2,2
2025-09-03 13:38:59.791,-521216,-584063,-584175,-558612,2,2,2,2
2025-09-03 13:38:59.793,-521226,-584114,-584194,-575008,2,2,2,2
2025-09-03 13:38:59.796,-521356,-584200,-584245,-558743,2,2,2,2
2025-09-03 13:38:59.799,-521470,-584316,-584430,-558610,2,2,2,2
2025-09-03 13:38:59.802,-521206,-584054,-584169,-558601,2,2,2,2
2025-09-03 13:38:59.804,-521107,-583947,-584067,-558561,2,2,2,2
2025-09-03 13:38:59.807,-521191,-583967,-584084,-574972,2,2,2,2
2025-09-03 13:38:59.809,-520975,-575883,-584189,-558363,2,2,2,2
2025-09-03 13:38:59.812,-520989,-584162,-583962,-558458,2,2,2,2
2025-09-03 13:38:59.815,-521023,-583939,-584055,-558485,2,2,2,2
2025-09-03 13:38:59.818,-521234,-584073,-584191,-558690,2,2,2,2
2025-09-03 13:38:59.820,-521107,-583950,-584074,-574924,2,2,2,2
2025-09-03 13:38:59.823,-521230,-584138,-584206,-575048,2,2,2,2
2025-09-03 13:38:59.826,-521115,-575776,-584158,-558584,2,2,2,2
2025-09-03 13:38:59.828,-521222,-584073,-584196,-558623,2,2,2,2
2025-09-03 13:38:59.831,-521232,-584078,-584206,-558637,2,2,2,2
2025-09-03 13:38:59.834,-521237,-584078,-576012,-558640,2,2,2,2
2025-09-03 13:38:59.837,-521203,-583985,-584172,-575025,2,2,2,2
2025-09-03 13:38:59.839,-521200,-584055,-584180,-558619,2,2,2,2
2025-09-03 13:38:59.842,-521198,-583974,-584167,-574983,2,2,2,2
2025-09-03 13:38:59.844,-521103,-583941,-584073,-558569,2,2,2,2
2025-09-03 13:38:59.848,-521243,-584151,-584211,-575096,2,2,2,2
2025-09-03 13:38:59.850,-521225,-584083,-584206,-558709,2,2,2,2
2025-09-03 13:38:59.853,-521083,-584188,-584063,-558486,2,2,2,2
2025-09-03 13:38:59.856,-521091,-584181,-584061,-558560,2,2,2,2
2025-09-03 13:38:59.858,-521215,-584057,-584184,-558622,2,2,2,2
2025-09-03 13:38:59.861,-521084,-584183,-584057,-558564,2,2,2,2
2025-09-03 13:38:59.863,-520966,-584075,-583938,-558440,2,2,2,2
2025-09-03 13:38:59.866,-521068,-584096,-583976,-558484,2,2,2,2
2025-09-03 13:38:59.868,-521039,-583916,-584039,-558487,2,2,2,2
2025-09-03 13:38:59.871,-520977,-575886,-583955,-558450,2,2,2,2
2025-09-03 13:38:59.874,-521192,-583968,-584161,-558604,2,2,2,2
2025-09-03 13:38:59.877,-521277,-584174,-584311,-558751,2,2,2,2
2025-09-03 13:38:59.879,-521451,-584260,-584437,-558616,2,2,2,2
2025-09-03 13:38:59.882,-521245,-584093,-584221,-558728,2,2,2,2
2025-09-03 13:38:59.885,-521060,-584176,-584045,-558553,2,2,2,2
2025-09-03 13:38:59.888,-520979,-584084,-583994,-558469,2,2,2,2
2025-09-03 13:38:59.891,-521112,-583963,-584157,-558606,2,2,2,2
2025-09-03 13:38:59.893,-521059,-584127,-584045,-574880,2,2,2,2
2025-09-03 13:38:59.896,-520973,-584149,-583964,-574854,2,2,2,2
2025-09-03 13:38:59.899,-521099,-583943,-584135,-558592,2,2,2,2
2025-09-03 13:38:59.902,-521214,-584059,-584181,-558703,2,2,2,2
2025-09-03 13:38:59.905,-521188,-583970,-584165,-575031,2,2,2,2
2025-09-03 13:38:59.908,-520979,-584085,-575754,-558536,2,2,2,2
2025-09-03 13:38:59.910,-521201,-584046,-584163,-558612,2,2,2,2
2025-09-03 13:38:59.913,-521237,-584084,-584198,-558714,2,2,2,2
2025-09-03 13:38:59.916,-521457,-584299,-584419,-558690,2,2,2,2
2025-09-03 13:38:59.919,-521467,-584301,-584414,-558696,2,2,2,2
2025-09-03 13:38:59.922,-521115,-575760,-584140,-558598,2,2,2,2
2025-09-03 13:38:59.925,-521112,-583962,-584080,-558601,2,2,2,2
2025-09-03 13:38:59.927,-521116,-583953,-584081,-558597,2,2,2,2
2025-09-03 13:38:59.930,-521221,-584318,-584446,-558701,2,2,2,2
2025-09-03 13:38:59.933,-521454,-576104,-584425,-558689,2,2,2,2
2025-09-03 13:38:59.935,-521398,-584223,-584337,-558619,2,2,2,2
2025-09-03 13:38:59.938,-521371,-576023,-584413,-558614,2,2,2,2
2025-09-03 13:38:59.940,-521415,-584196,-584326,-558600,2,2,2,2
2025-09-03 13:38:59.943,-521374,-576098,-584408,-558616,2,2,2,2
2025-09-03 13:38:59.945,-521243,-584089,-584209,-558734,2,2,2,2
2025-09-03 13:38:59.948,-521215,-584055,-584176,-558714,2,2,2,2
2025-09-03 13:38:59.951,-521231,-584074,-575999,-558789,2,2,2,2
2025-09-03 13:38:59.954,-521170,-584192,-584067,-558592,2,2,2,2
2025-09-03 13:38:59.957,-521014,-584164,-584049,-558580,2,2,2,2
2025-09-03 13:38:59.959,-521259,-584089,-584257,-558825,2,2,2,2
2025-09-03 13:38:59.962,-521463,-584224,-584383,-558693,2,2,2,2
2025-09-03 13:38:59.964,-521243,-584322,-584198,-558726,2,2,2,2
2025-09-03 13:38:59.967,-521441,-584212,-584329,-575003,2,2,2,2
2025-09-03 13:38:59.970,-521350,-584171,-584296,-575220,2,2,2,2
2025-09-03 13:38:59.973,-521321,-584083,-584207,-558817,2,2,2,2
2025-09-03 13:38:59.975,-521230,-584059,-584188,-558729,2,2,2,2
2025-09-03 13:38:59.978,-521209,-584035,-584162,-558639,2,2,2,2
2025-09-03 13:38:59.981,-521273,-584071,-576004,-558794,2,2,2,2
2025-09-03 13:38:59.983,-521453,-584220,-576146,-558625,2,2,2,2
2025-09-03 13:38:59.986,-521417,-584209,-576141,-558624,2,2,2,2
2025-09-03 13:38:59.989,-521264,-584082,-584243,-558821,2,2,2,2
2025-09-03 13:38:59.992,-521338,-584171,-584226,-558594,2,2,2,2
2025-09-03 13:38:59.994,-521210,-583967,-584173,-558713,2,2,2,2
2025-09-03 13:38:59.997,-521463,-576023,-584414,-558699,2,2,2,2
2025-09-03 13:39:00.000,-521276,-584350,-584261,-558846,2,2,2,2
2025-09-03 13:39:00.003,-521321,-584329,-584211,-575214,2,2,2,2
2025-09-03 13:39:00.005,-521454,-584241,-584342,-558706,2,2,2,2
2025-09-03 13:39:00.008,-521334,-584086,-584228,-558846,2,2,2,2
2025-09-03 13:39:00.011,-521349,-584156,-584302,-574992,2,2,2,2
2025-09-03 13:39:00.014,-521366,-584182,-576125,-558626,2,2,2,2
2025-09-03 13:39:00.016,-521220,-583966,-584141,-558729,2,2,2,2
2025-09-03 13:39:00.019,-521242,-584060,-576002,-558813,2,2,2,2
2025-09-03 13:39:00.021,-521089,-584086,-583974,-558594,2,2,2,2
2025-09-03 13:39:00.024,-521313,-575872,-584211,-558834,2,2,2,2
2025-09-03 13:39:00.027,-521341,-584092,-584310,-558600,2,2,2,2
2025-09-03 13:39:00.030,-521360,-584134,-584302,-558600,2,2,2,2
2025-09-03 13:39:00.033,-521423,-584164,-584306,-558608,2,2,2,2
2025-09-03 13:39:00.035,-521217,-584204,-576152,-558634,2,2,2,2
2025-09-03 13:39:00.038,-521452,-584182,-584322,-575033,2,2,2,2
2025-09-03 13:39:00.040,-521441,-575974,-584237,-558598,2,2,2,2
2025-09-03 13:39:00.043,-521325,-584322,-584208,-558827,2,2,2,2
2025-09-03 13:39:00.046,-521218,-584215,-584350,-575089,2,2,2,2
2025-09-03 13:39:00.049,-521328,-584139,-584210,-558832,2,2,2,2
2025-09-03 13:39:00.052,-521232,-583966,-584135,-558731,2,2,2,2
2025-09-03 13:39:00.055,-521200,-584186,-584071,-575047,2,2,2,2
2025-09-03 13:39:00.058,-521199,-584185,-584072,-558694,2,2,2,2
2025-09-03 13:39:00.061,-521191,-584183,-584077,-558632,2,2,2,2
2025-09-03 13:39:00.063,-521093,-584128,-584058,-558609,2,2,2,2
2025-09-03 13:39:00.066,-521216,-583956,-584165,-558729,2,2,2,2
2025-09-03 13:39:00.068,-521222,-583958,-584181,-558737,2,2,2,2
2025-09-03 13:39:00.071,-521016,-584064,-583966,-558598,2,2,2,2
2025-09-03 13:39:00.074,-521075,-584059,-583954,-558589,2,2,2,2
2025-09-03 13:39:00.077,-521060,-584052,-583956,-558582,2,2,2,2
2025-09-03 13:39:00.079,-521112,-575977,-583997,-558695,2,2,2,2
2025-09-03 13:39:00.082,-521315,-583976,-584187,-575223,2,2,2,2
2025-09-03 13:39:00.085,-521279,-584072,-584223,-558610,2,2,2,2
2025-09-03 13:39:00.088,-521257,-584034,-584192,-558835,2,2,2,2
2025-09-03 13:39:00.090,-521247,-584007,-584191,-558835,2,2,2,2
2025-09-03 13:39:00.093,-521320,-584055,-584205,-558593,2,2,2,2
2025-09-03 13:39:00.095,-521466,-576010,-584408,-558729,2,2,2,2
2025-09-03 13:39:00.098,-521462,-584200,-584411,-558735,2,2,2,2
2025-09-03 13:39:00.101,-521345,-575892,-584220,-558603,2,2,2,2
2025-09-03 13:39:00.104,-521117,-584171,-584069,-575089,2,2,2,2
2025-09-03 13:39:00.107,-521097,-575903,-583987,-558695,2,2,2,2
2025-09-03 13:39:00.109,-521016,-584068,-583960,-558599,2,2,2,2
2025-09-03 13:39:00.112,-521096,-584160,-584052,-575008,2,2,2,2
2025-09-03 13:39:00.115,-521194,-584183,-584074,-558720,2,2,2,2
2025-09-03 13:39:00.117,-521442,-584173,-584324,-558647,2,2,2,2
2025-09-03 13:39:00.120,-521227,-583951,-575904,-558803,2,2,2,2
2025-09-03 13:39:00.122,-521116,-575972,-584133,-558702,2,2,2,2
2025-09-03 13:39:00.125,-521221,-583952,-584169,-575165,2,2,2,2
2025-09-03 13:39:00.128,-521212,-575752,-584151,-558740,2,2,2,2
2025-09-03 13:39:00.130,-521234,-583976,-584178,-558830,2,2,2,2
2025-09-03 13:39:00.133,-520991,-584049,-584189,-558584,2,2,2,2
2025-09-03 13:39:00.136,-521060,-583999,-583943,-574977,2,2,2,2
2025-09-03 13:39:00.139,-521170,-584093,-584047,-558703,2,2,2,2
2025-09-03 13:39:00.141,-521197,-584180,-584073,-575170,2,2,2,2
2025-09-03 13:39:00.144,-521320,-584046,-584194,-558842,2,2,2,2
2025-09-03 13:39:00.147,-521341,-584072,-584292,-558615,2,2,2,2
2025-09-03 13:39:00.149,-521349,-584089,-584299,-558693,2,2,2,2
2025-09-03 13:39:00.152,-521216,-583953,-584088,-575120,2,2,2,2
2025-09-03 13:39:00.155,-521231,-583964,-584169,-558818,2,2,2,2
2025-09-03 13:39:00.158,-521238,-584046,-584185,-558838,2,2,2,2
2025-09-03 13:39:00.161,-521236,-584057,-584184,-558832,2,2,2,2
2025-09-03 13:39:00.163,-521316,-584135,-584209,-574986,2,2,2,2
2025-09-03 13:39:00.166,-521229,-584039,-584165,-558826,2,2,2,2
2025-09-03 13:39:00.170,-521445,-584195,-584327,-558730,2,2,2,2
2025-09-03 13:39:00.173,-521434,-584186,-584387,-558724,2,2,2,2
2025-09-03 13:39:00.175,-521366,-575992,-584252,-558721,2,2,2,2
2025-09-03 13:39:00.178,-521358,-584438,-584307,-558959,2,2,2,2
2025-09-03 13:39:00.181,-521460,-584204,-584336,-575441,2,2,2,2
2025-09-03 13:39:00.184,-521332,-584335,-584213,-558866,2,2,2,2
2025-09-03 13:39:00.186,-521442,-584195,-584404,-558724,2,2,2,2
2025-09-03 13:39:00.189,-521352,-584163,-584294,-558694,2,2,2,2
2025-09-03 13:39:00.192,-521427,-584174,-584320,-558716,2,2,2,2
2025-09-03 13:39:00.194,-521248,-584247,-584209,-575249,2,2,2,2
2025-09-03 13:39:00.197,-521438,-584181,-584329,-558727,2,2,2,2
2025-09-03 13:39:00.200,-521247,-584314,-584196,-558846,2,2,2,2
2025-09-03 13:39:00.202,-521281,-584323,-584208,-558853,2,2,2,2
2025-09-03 13:39:00.205,-521370,-584183,-584387,-558719,2,2,2,2
2025-09-03 13:39:00.208,-521324,-584138,-584214,-558606,2,2,2,2
2025-09-03 13:39:00.211,-521314,-584070,-584211,-558599,2,2,2,2
2025-09-03 13:39:00.214,-521453,-584212,-584348,-575117,2,2,2,2
2025-09-03 13:39:00.217,-521328,-584415,-584295,-575248,2,2,2,2
2025-09-03 13:39:00.220,-521222,-584308,-576253,-558839,2,2,2,2
2025-09-03 13:39:00.222,-521357,-584180,-584316,-575098,2,2,2,2
2025-09-03 13:39:00.225,-521430,-584192,-584252,-558707,2,2,2,2
2025-09-03 13:39:00.227,-521326,-584139,-584217,-574990,2,2,2,2
2025-09-03 13:39:00.230,-521371,-584193,-584312,-575109,2,2,2,2
2025-09-03 13:39:00.233,-521231,-584313,-584440,-558830,2,2,2,2
2025-09-03 13:39:00.235,-521444,-584198,-584328,-575169,2,2,2,2
2025-09-03 13:39:00.238,-521257,-584071,-584205,-558601,2,2,2,2
2025-09-03 13:39:00.240,-521088,-584164,-584035,-575014,2,2,2,2
2025-09-03 13:39:00.243,-521183,-583939,-584130,-558716,2,2,2,2
2025-09-03 13:39:00.246,-521315,-584056,-584202,-574983,2,2,2,2
2025-09-03 13:39:00.248,-521346,-584158,-584219,-575036,2,2,2,2
2025-09-03 13:39:00.251,-521283,-584069,-584197,-558595,2,2,2,2
2025-09-03 13:39:00.254,-521099,-584183,-584054,-575035,2,2,2,2
2025-09-03 13:39:00.256,-521235,-584058,-584193,-558599,2,2,2,2
2025-09-03 13:39:00.259,-521454,-584199,-584334,-558742,2,2,2,2
2025-09-03 13:39:00.262,-521469,-584208,-584422,-558826,2,2,2,2
2025-09-03 13:39:00.264,-521354,-584386,-584309,-575341,2,2,2,2
2025-09-03 13:39:00.267,-521364,-584417,-584308,-575351,2,2,2,2
2025-09-03 13:39:00.270,-521243,-584315,-584194,-558867,2,2,2,2
2025-09-03 13:39:00.272,-521436,-584440,-584322,-558993,2,2,2,2
2025-09-03 13:39:00.275,-521469,-584205,-584346,-558817,2,2,2,2
2025-09-03 13:39:00.277,-521467,-584207,-584412,-558752,2,2,2,2
2025-09-03 13:39:00.280,-521249,-584314,-584195,-558862,2,2,2,2
2025-09-03 13:39:00.283,-521416,-584200,-584330,-559052,2,2,2,2
2025-09-03 13:39:00.286,-521319,-584271,-584448,-558858,2,2,2,2
2025-09-03 13:39:00.289,-521236,-584302,-584435,-558848,2,2,2,2
2025-09-03 13:39:00.291,-521280,-584087,-584213,-558699,2,2,2,2
2025-09-03 13:39:00.294,-521231,-584042,-584176,-558832,2,2,2,2
2025-09-03 13:39:00.297,-521442,-575994,-584248,-558732,2,2,2,2
2025-09-03 13:39:00.299,-521273,-584340,-584245,-558951,2,2,2,2
2025-09-03 13:39:00.302,-521223,-584224,-584422,-558839,2,2,2,2
2025-09-03 13:39:00.305,-521425,-584172,-584236,-558716,2,2,2,2
2025-09-03 13:39:00.307,-521449,-584193,-584323,-575164,2,2,2,2
2025-09-03 13:39:00.310,-521263,-584329,-584198,-558878,2,2,2,2
2025-09-03 13:39:00.313,-521458,-584197,-584326,-575163,2,2,2,2
2025-09-03 13:39:00.315,-521682,-584345,-584546,-558955,2,2,2,2
2025-09-03 13:39:00.318,-521696,-584422,-584494,-558981,2,2,2,2
2025-09-03 13:39:00.321,-521365,-584424,-584297,-558907,2,2,2,2
2025-09-03 13:39:00.323,-521348,-584400,-584210,-575345,2,2,2,2
2025-09-03 13:39:00.326,-521345,-576143,-584203,-558950,2,2,2,2
2025-09-03 13:39:00.329,-521433,-584427,-584235,-558984,2,2,2,2
2025-09-03 13:39:00.332,-521236,-584309,-584441,-558856,2,2,2,2
2025-09-03 13:39:00.335,-521320,-584388,-584199,-575250,2,2,2,2
2025-09-03 13:39:00.337,-521087,-584084,-575844,-558639,2,2,2,2
2025-09-03 13:39:00.340,-521091,-584150,-584047,-575091,2,2,2,2
2025-09-03 13:39:00.343,-521105,-584178,-584062,-575039,2,2,2,2
2025-09-03 13:39:00.345,-521202,-583949,-584166,-575131,2,2,2,2
2025-09-03 13:39:00.348,-521180,-584186,-584137,-558731,2,2,2,2
2025-09-03 13:39:00.351,-521142,-584180,-575863,-558655,2,2,2,2
2025-09-03 13:39:00.353,-521189,-583951,-584088,-558749,2,2,2,2
2025-09-03 13:39:00.356,-521196,-575761,-584158,-558751,2,2,2,2
2025-09-03 13:39:00.359,-521242,-584054,-584202,-558608,2,2,2,2
2025-09-03 13:39:00.362,-521227,-583981,-584187,-574979,2,2,2,2
2025-09-03 13:39:00.365,-521218,-584045,-584187,-558839,2,2,2,2
2025-09-03 13:39:00.368,-521119,-583939,-575892,-558812,2,2,2,2
2025-09-03 13:39:00.371,-521059,-583995,-583959,-575026,2,2,2,2
2025-09-03 13:39:00.373,-521200,-576000,-584145,-558743,2,2,2,2
2025-09-03 13:39:00.376,-521239,-583986,-584195,-574989,2,2,2,2
2025-09-03 13:39:00.378,-521092,-584169,-584058,-558717,2,2,2,2
2025-09-03 13:39:00.381,-521086,-584134,-584054,-558709,2,2,2,2
2025-09-03 13:39:00.384,-521200,-583957,-584162,-575173,2,2,2,2
2025-09-03 13:39:00.387,-521178,-583946,-584117,-558742,2,2,2,2
2025-09-03 13:39:00.390,-521195,-583956,-584171,-558829,2,2,2,2
2025-09-03 13:39:00.392,-521339,-584164,-584238,-558702,2,2,2,2
2025-09-03 13:39:00.395,-521400,-584190,-584329,-558719,2,2,2,2
2025-09-03 13:39:00.398,-521238,-584318,-584198,-558844,2,2,2,2
2025-09-03 13:39:00.400,-521449,-584216,-584339,-558814,2,2,2,2
2025-09-03 13:39:00.403,-521410,-584420,-584306,-558961,2,2,2,2
2025-09-03 13:39:00.406,-521221,-584230,-584438,-558839,2,2,2,2
2025-09-03 13:39:00.408,-521344,-584165,-584309,-558725,2,2,2,2
2025-09-03 13:39:00.411,-521374,-584190,-584336,-558823,2,2,2,2
2025-09-03 13:39:00.413,-521455,-584223,-584419,-575219,2,2,2,2
2025-09-03 13:39:00.416,-521229,-584301,-584430,-558850,2,2,2,2
2025-09-03 13:39:00.419,-521326,-584336,-584214,-558878,2,2,2,2
2025-09-03 13:39:00.422,-521446,-584209,-584345,-558810,2,2,2,2
2025-09-03 13:39:00.424,-521365,-584191,-584319,-558799,2,2,2,2
2025-09-03 13:39:00.427,-521320,-584070,-584206,-574999,2,2,2,2
2025-09-03 13:39:00.430,-521365,-584185,-584324,-575112,2,2,2,2
2025-09-03 13:39:00.432,-521236,-584385,-584445,-575249,2,2,2,2
2025-09-03 13:39:00.435,-521236,-584314,-584201,-575240,2,2,2,2
2025-09-03 13:39:00.438,-521270,-584343,-584232,-558956,2,2,2,2
2025-09-03 13:39:00.441,-521465,-584296,-576239,-558845,2,2,2,2
2025-09-03 13:39:00.443,-521243,-584389,-584218,-575336,2,2,2,2
2025-09-03 13:39:00.446,-521248,-576136,-584213,-558949,2,2,2,2
2025-09-03 13:39:00.448,-521361,-584431,-584310,-575368,2,2,2,2
2025-09-03 13:39:00.451,-521234,-584248,-584196,-575253,2,2,2,2
2025-09-03 13:39:00.454,-521353,-584432,-584319,-559048,2,2,2,2
2025-09-03 13:39:00.456,-521254,-584339,-584225,-558946,2,2,2,2
2025-09-03 13:39:00.459,-521269,-584324,-576020,-558872,2,2,2,2
2025-09-03 13:39:00.462,-521470,-584235,-584440,-575480,2,2,2,2
2025-09-03 13:39:00.465,-521441,-584220,-584391,-559075,2,2,2,2
2025-09-03 13:39:00.468,-521364,-584208,-584421,-559008,2,2,2,2
2025-09-03 13:39:00.470,-521330,-584347,-576121,-558905,2,2,2,2
2025-09-03 13:39:00.473,-521410,-584443,-584399,-558988,2,2,2,2
2025-09-03 13:39:00.476,-521349,-584188,-584337,-558808,2,2,2,2
2025-09-03 13:39:00.479,-521422,-584216,-576247,-558828,2,2,2,2
2025-09-03 13:39:00.481,-521407,-584202,-576229,-559058,2,2,2,2
2025-09-03 13:39:00.484,-521275,-584423,-584322,-558969,2,2,2,2
2025-09-03 13:39:00.487,-521448,-584217,-584438,-559087,2,2,2,2
2025-09-03 13:39:00.490,-521217,-584301,-584207,-558845,2,2,2,2
2025-09-03 13:39:00.493,-521337,-584169,-584326,-558711,2,2,2,2
2025-09-03 13:39:00.495,-521444,-584214,-584397,-558751,2,2,2,2
2025-09-03 13:39:00.498,-521357,-584193,-584340,-558726,2,2,2,2
2025-09-03 13:39:00.501,-521330,-584167,-584306,-558630,2,2,2,2
2025-09-03 13:39:00.504,-521450,-584291,-584429,-558821,2,2,2,2
2025-09-03 13:39:00.506,-521350,-584191,-576143,-558788,2,2,2,2
2025-09-03 13:39:00.509,-521329,-584165,-584315,-575048,2,2,2,2
2025-09-03 13:39:00.512,-521316,-584343,-584298,-558873,2,2,2,2
2025-09-03 13:39:00.514,-521226,-584309,-584203,-558854,2,2,2,2
2025-09-03 13:39:00.517,-521226,-584299,-584445,-558839,2,2,2,2
2025-09-03 13:39:00.519,-521333,-584427,-584310,-575343,2,2,2,2
2025-09-03 13:39:00.522,-521348,-584182,-576132,-558643,2,2,2,2
2025-09-03 13:39:00.524,-521343,-584175,-584331,-575094,2,2,2,2
2025-09-03 13:39:00.527,-521352,-584187,-576149,-558791,2,2,2,2
2025-09-03 13:39:00.530,-521229,-584248,-584205,-575235,2,2,2,2
2025-09-03 13:39:00.532,-521415,-584182,-584337,-558718,2,2,2,2
2025-09-03 13:39:00.535,-521445,-584209,-584418,-575192,2,2,2,2
2025-09-03 13:39:00.537,-521362,-584190,-584349,-558794,2,2,2,2
2025-09-03 13:39:00.540,-521227,-584305,-584212,-558847,2,2,2,2
2025-09-03 13:39:00.543,-521243,-584320,-584295,-558866,2,2,2,2
2025-09-03 13:39:00.545,-521226,-584302,-584212,-558843,2,2,2,2
2025-09-03 13:39:00.548,-521464,-584217,-584447,-575203,2,2,2,2
2025-09-03 13:39:00.551,-521240,-584319,-584213,-558854,2,2,2,2
2025-09-03 13:39:00.553,-521422,-584190,-584377,-558716,2,2,2,2
2025-09-03 13:39:00.556,-521223,-584316,-584208,-558847,2,2,2,2
2025-09-03 13:39:00.559,-521241,-584336,-584296,-575241,2,2,2,2
2025-09-03 13:39:00.561,-521348,-584431,-584319,-575340,2,2,2,2
2025-09-03 13:39:00.564,-521551,-584343,-584557,-558869,2,2,2,2
2025-09-03 13:39:00.567,-521613,-584437,-584594,-575353,2,2,2,2
2025-09-03 13:39:00.569,-521461,-584219,-584446,-559073,2,2,2,2
2025-09-03 13:39:00.572,-521363,-576255,-584419,-558976,2,2,2,2
2025-09-03 13:39:00.574,-521448,-584202,-584443,-559000,2,2,2,2
2025-09-03 13:39:00.577,-521458,-584207,-584442,-575460,2,2,2,2
2025-09-03 13:39:00.579,-521471,-584218,-584447,-559080,2,2,2,2
2025-09-03 13:39:00.582,-521517,-584342,-584505,-558879,2,2,2,2
2025-09-03 13:39:00.585,-521462,-584216,-584446,-559077,2,2,2,2
2025-09-03 13:39:00.588,-521423,-584439,-584350,-558981,2,2,2,2
2025-09-03 13:39:00.590,-521241,-584299,-584255,-558844,2,2,2,2
2025-09-03 13:39:00.593,-521314,-584386,-584298,-575257,2,2,2,2
2025-09-03 13:39:00.596,-521243,-584317,-584220,-575246,2,2,2,2
2025-09-03 13:39:00.598,-521365,-584442,-584339,-575370,2,2,2,2
2025-09-03 13:39:00.601,-521422,-584222,-584438,-559081,2,2,2,2
2025-09-03 13:39:00.604,-521470,-576029,-584438,-559088,2,2,2,2
2025-09-03 13:39:00.606,-521319,-584332,-584304,-558874,2,2,2,2
2025-09-03 13:39:00.609,-521374,-584198,-584430,-575190,2,2,2,2
2025-09-03 13:39:00.612,-521325,-584076,-584313,-558694,2,2,2,2
2025-09-03 13:39:00.614,-521411,-584079,-584252,-558697,2,2,2,2
2025-09-03 13:39:00.617,-521472,-584212,-576250,-558824,2,2,2,2
2025-09-03 13:39:00.620,-521346,-584090,-584253,-558701,2,2,2,2
2025-09-03 13:39:00.623,-521325,-584063,-584303,-558616,2,2,2,2
2025-09-03 13:39:00.626,-521349,-584148,-584312,-575048,2,2,2,2
2025-09-03 13:39:00.629,-521364,-584178,-584344,-558655,2,2,2,2
2025-09-03 13:39:00.631,-521352,-584128,-584339,-575085,2,2,2,2
2025-09-03 13:39:00.634,-521176,-584174,-584162,-558716,2,2,2,2
2025-09-03 13:39:00.637,-521095,-584087,-584072,-558644,2,2,2,2
2025-09-03 13:39:00.640,-520964,-583955,-583937,-558566,2,2,2,2
2025-09-03 13:39:00.643,-521089,-584082,-584133,-558690,2,2,2,2
2025-09-03 13:39:00.645,-521200,-583942,-584177,-558741,2,2,2,2
2025-09-03 13:39:00.648,-521468,-584214,-584442,-558829,2,2,2,2
2025-09-03 13:39:00.651,-521226,-584216,-584447,-575213,2,2,2,2
2025-09-03 13:39:00.654,-521242,-584038,-576015,-558595,2,2,2,2
2025-09-03 13:39:00.657,-521229,-583956,-584206,-558835,2,2,2,2
2025-09-03 13:39:00.659,-521351,-584139,-584319,-558627,2,2,2,2
2025-09-03 13:39:00.662,-521222,-584214,-584195,-558829,2,2,2,2
2025-09-03 13:39:00.665,-521324,-584324,-584233,-558862,2,2,2,2
2025-09-03 13:39:00.668,-521237,-584242,-584219,-575232,2,2,2,2
2025-09-03 13:39:00.671,-521432,-584432,-584415,-558981,2,2,2,2
2025-09-03 13:39:00.674,-521332,-584329,-584235,-558954,2,2,2,2
2025-09-03 13:39:00.676,-521284,-584302,-576032,-558869,2,2,2,2
2025-09-03 13:39:00.679,-521413,-584352,-584328,-558963,2,2,2,2
2025-09-03 13:39:00.682,-521482,-584207,-584442,-559084,2,2,2,2
2025-09-03 13:39:00.685,-521454,-584440,-584427,-575382,2,2,2,2
2025-09-03 13:39:00.688,-521318,-584235,-584294,-575241,2,2,2,2
2025-09-03 13:39:00.690,-521256,-584313,-584234,-558869,2,2,2,2
2025-09-03 13:39:00.693,-521469,-584199,-584447,-558751,2,2,2,2
2025-09-03 13:39:00.695,-521438,-584430,-584414,-558976,2,2,2,2
2025-09-03 13:39:00.698,-521255,-584300,-584257,-558855,2,2,2,2
2025-09-03 13:39:00.700,-521426,-584348,-584400,-558967,2,2,2,2
2025-09-03 13:39:00.703,-521483,-584212,-584468,-559093,2,2,2,2
2025-09-03 13:39:00.706,-521334,-576106,-584241,-558869,2,2,2,2
2025-09-03 13:39:00.708,-521410,-584323,-584328,-558952,2,2,2,2
2025-09-03 13:39:00.711,-521326,-575862,-584240,-558620,2,2,2,2
2025-09-03 13:39:00.713,-521213,-584192,-584192,-558818,2,2,2,2
2025-09-03 13:39:00.716,-521200,-575997,-584187,-558751,2,2,2,2
2025-09-03 13:39:00.718,-521208,-584183,-584195,-558738,2,2,2,2
2025-09-03 13:39:00.722,-521231,-583961,-584226,-558837,2,2,2,2
2025-09-03 13:39:00.724,-521219,-583939,-584201,-575209,2,2,2,2
2025-09-03 13:39:00.727,-521445,-584188,-584435,-575194,2,2,2,2
2025-09-03 13:39:00.730,-521237,-584290,-584224,-558851,2,2,2,2
2025-09-03 13:39:00.733,-521364,-584088,-576151,-558788,2,2,2,2
2025-09-03 13:39:00.735,-521423,-584089,-584411,-558722,2,2,2,2
2025-09-03 13:39:00.738,-521289,-584064,-584313,-558624,2,2,2,2
2025-09-03 13:39:00.741,-521420,-584163,-584384,-558721,2,2,2,2
2025-09-03 13:39:00.744,-521363,-584170,-584428,-558793,2,2,2,2
2025-09-03 13:39:00.746,-521236,-584011,-584295,-558603,2,2,2,2
2025-09-03 13:39:00.749,-521441,-584172,-584427,-558730,2,2,2,2
2025-09-03 13:39:00.751,-521247,-575847,-584239,-558613,2,2,2,2
2025-09-03 13:39:00.754,-521198,-584177,-584190,-575160,2,2,2,2
2025-09-03 13:39:00.757,-521313,-584049,-584317,-558617,2,2,2,2
2025-09-03 13:39:00.760,-521353,-584093,-576160,-558792,2,2,2,2
2025-09-03 13:39:00.763,-521334,-584068,-584327,-558696,2,2,2,2
2025-09-03 13:39:00.766,-521427,-584087,-584390,-558727,2,2,2,2
2025-09-03 13:39:00.768,-521192,-584179,-584190,-558824,2,2,2,2
2025-09-03 13:39:00.771,-521211,-583934,-583950,-558576,2,2,2,2
2025-09-03 13:39:00.774,-521028,-584048,-584057,-558698,2,2,2,2
2025-09-03 13:39:00.777,-521205,-584185,-584207,-558835,2,2,2,2
2025-09-03 13:39:00.779,-521218,-583940,-584221,-574979,2,2,2,2
2025-09-03 13:39:00.782,-521248,-584001,-584305,-558621,2,2,2,2
2025-09-03 13:39:00.785,-521238,-583963,-584314,-558612,2,2,2,2
2025-09-03 13:39:00.788,-521230,-583960,-584242,-558619,2,2,2,2
2025-09-03 13:39:00.791,-521204,-584188,-584224,-574979,2,2,2,2
2025-09-03 13:39:00.793,-521342,-584132,-584351,-575111,2,2,2,2
2025-09-03 13:39:00.796,-521412,-584074,-584381,-558724,2,2,2,2
2025-09-03 13:39:00.799,-521341,-584067,-584345,-558655,2,2,2,2
2025-09-03 13:39:00.802,-521246,-584038,-576134,-558625,2,2,2,2
2025-09-03 13:39:00.805,-521258,-584047,-584334,-558713,2,2,2,2
2025-09-03 13:39:00.808,-521236,-584038,-584256,-558696,2,2,2,2
2025-09-03 13:39:00.810,-521233,-583997,-584311,-558698,2,2,2,2
2025-09-03 13:39:00.813,-521223,-584209,-584235,-558872,2,2,2,2
2025-09-03 13:39:00.816,-521340,-575885,-584424,-558728,2,2,2,2
2025-09-03 13:39:00.819,-521332,-584060,-584342,-558715,2,2,2,2
2025-09-03 13:39:00.821,-521463,-584185,-584213,-558851,2,2,2,2
2025-09-03 13:39:00.824,-521335,-584055,-576158,-558655,2,2,2,2
2025-09-03 13:39:00.826,-521208,-584190,-584290,-574986,2,2,2,2
2025-09-03 13:39:00.829,-520980,-583958,-584051,-575007,2,2,2,2
2025-09-03 13:39:00.832,-520989,-583963,-584068,-575051,2,2,2,2
2025-09-03 13:39:00.834,-521078,-583991,-584094,-575114,2,2,2,2
2025-09-03 13:39:00.836,-520978,-583954,-584061,-575048,2,2,2,2
2025-09-03 13:39:00.840,-521096,-583820,-584187,-558564,2,2,2,2
2025-09-03 13:39:00.842,-521192,-583921,-583962,-558597,2,2,2,2
2025-09-03 13:39:00.845,-520965,-583932,-583983,-558607,2,2,2,2
2025-09-03 13:39:00.848,-521205,-583920,-583957,-558604,2,2,2,2
2025-09-03 13:39:00.850,-521074,-575850,-584149,-558720,2,2,2,2
2025-09-03 13:39:00.853,-521198,-583912,-583955,-558587,2,2,2,2
2025-09-03 13:39:00.856,-521084,-583798,-584174,-558479,2,2,2,2
2025-09-03 13:39:00.859,-521186,-583891,-584192,-574956,2,2,2,2
2025-09-03 13:39:00.861,-521209,-583925,-583966,-574988,2,2,2,2
2025-09-03 13:39:00.864,-520991,-583970,-584073,-575101,2,2,2,2
2025-09-03 13:39:00.866,-521086,-584063,-575978,-558799,2,2,2,2
2025-09-03 13:39:00.869,-520979,-583960,-584069,-575055,2,2,2,2
2025-09-03 13:39:00.871,-521039,-584045,-575970,-558786,2,2,2,2
2025-09-03 13:39:00.874,-521008,-584039,-584076,-558719,2,2,2,2
2025-09-03 13:39:00.877,-521066,-584033,-584079,-558647,2,2,2,2
2025-09-03 13:39:00.880,-521188,-575969,-584199,-558842,2,2,2,2
2025-09-03 13:39:00.883,-521220,-583941,-584298,-558622,2,2,2,2
2025-09-03 13:39:00.885,-521320,-583963,-584335,-575104,2,2,2,2
2025-09-03 13:39:00.888,-521186,-584084,-584199,-558843,2,2,2,2
2025-09-03 13:39:00.890,-521010,-584044,-584134,-558728,2,2,2,2
2025-09-03 13:39:00.893,-521214,-583922,-584049,-558621,2,2,2,2
2025-09-03 13:39:00.895,-521211,-583917,-583969,-558604,2,2,2,2
2025-09-03 13:39:00.898,-521078,-584048,-584163,-558802,2,2,2,2
2025-09-03 13:39:00.900,-520984,-583944,-583995,-558694,2,2,2,2
2025-09-03 13:39:00.903,-521214,-583922,-583969,-558608,2,2,2,2
2025-09-03 13:39:00.906,-521067,-583971,-584084,-558653,2,2,2,2
2025-09-03 13:39:00.909,-521154,-584056,-584136,-558818,2,2,2,2
2025-09-03 13:39:00.912,-520962,-583924,-583970,-558610,2,2,2,2
2025-09-03 13:39:00.914,-521163,-584163,-576017,-558846,2,2,2,2
2025-09-03 13:39:00.917,-521227,-584193,-584256,-558866,2,2,2,2
2025-09-03 13:39:00.920,-521375,-584084,-584445,-558821,2,2,2,2
2025-09-03 13:39:00.923,-521355,-584068,-576238,-558805,2,2,2,2
2025-09-03 13:39:00.925,-521220,-584187,-584230,-558607,2,2,2,2
2025-09-03 13:39:00.928,-521212,-584137,-584215,-558845,2,2,2,2
2025-09-03 13:39:00.930,-521313,-583951,-584250,-558689,2,2,2,2
2025-09-03 13:39:00.933,-521405,-584089,-576001,-558831,2,2,2,2
2025-09-03 13:39:00.936,-521271,-584058,-584374,-558731,2,2,2,2
2025-09-03 13:39:00.938,-521094,-584068,-584170,-558732,2,2,2,2
2025-09-03 13:39:00.941,-521074,-584049,-584082,-558723,2,2,2,2
2025-09-03 13:39:00.944,-520972,-583944,-583980,-558612,2,2,2,2
2025-09-03 13:39:00.946,-521039,-584046,-575887,-558642,2,2,2,2
2025-09-03 13:39:00.950,-520968,-583948,-575853,-558611,2,2,2,2
2025-09-03 13:39:00.953,-521202,-583911,-583952,-558585,2,2,2,2
2025-09-03 13:39:00.956,-520994,-583949,-583986,-558689,2,2,2,2
2025-09-03 13:39:00.958,-520983,-583945,-584048,-558619,2,2,2,2
2025-09-03 13:39:00.961,-520964,-583922,-584036,-574985,2,2,2,2
2025-09-03 13:39:00.964,-520982,-583940,-584049,-575046,2,2,2,2
2025-09-03 13:39:00.966,-521178,-584088,-584184,-558751,2,2,2,2
2025-09-03 13:39:00.969,-521063,-583962,-584060,-575019,2,2,2,2
2025-09-03 13:39:00.972,-521179,-584076,-584144,-558749,2,2,2,2
2025-09-03 13:39:00.974,-520971,-583950,-584058,-558616,2,2,2,2
2025-09-03 13:39:00.977,-521083,-583983,-584072,-575096,2,2,2,2
2025-09-03 13:39:00.980,-521181,-584087,-584188,-558820,2,2,2,2
2025-09-03 13:39:00.983,-521090,-584062,-584093,-558725,2,2,2,2
2025-09-03 13:39:00.985,-521082,-584059,-584095,-558787,2,2,2,2
2025-09-03 13:39:00.988,-521084,-584062,-584095,-558732,2,2,2,2
2025-09-03 13:39:00.990,-521109,-584082,-584194,-558819,2,2,2,2
2025-09-03 13:39:00.993,-521080,-584056,-584169,-558739,2,2,2,2
2025-09-03 13:39:00.996,-521060,-575765,-584135,-558706,2,2,2,2
2025-09-03 13:39:00.998,-520982,-583949,-584066,-558696,2,2,2,2
2025-09-03 13:39:01.001,-520968,-583935,-584048,-575029,2,2,2,2
2025-09-03 13:39:01.003,-521196,-575640,-583951,-558583,2,2,2,2
2025-09-03 13:39:01.006,-521197,-583906,-583957,-574967,2,2,2,2
2025-09-03 13:39:01.009,-521101,-584081,-584193,-558817,2,2,2,2
2025-09-03 13:39:01.012,-521209,-584185,-584296,-558596,2,2,2,2
2025-09-03 13:39:01.015,-520979,-583951,-584066,-575039,2,2,2,2
2025-09-03 13:39:01.018,-521090,-584059,-584187,-575116,2,2,2,2
2025-09-03 13:39:01.020,-521018,-584055,-584176,-558729,2,2,2,2
2025-09-03 13:39:01.023,-521157,-584078,-584192,-558826,2,2,2,2
2025-09-03 13:39:01.026,-521118,-575897,-584209,-558837,2,2,2,2
2025-09-03 13:39:01.029,-521091,-575873,-584175,-558741,2,2,2,2
2025-09-03 13:39:01.032,-520987,-583957,-584074,-575053,2,2,2,2
2025-09-03 13:39:01.034,-520972,-583944,-584069,-558616,2,2,2,2
2025-09-03 13:39:01.037,-520939,-583915,-584014,-558583,2,2,2,2
2025-09-03 13:39:01.040,-520963,-583687,-584065,-558366,2,2,2,2
2025-09-03 13:39:01.043,-521082,-583798,-584190,-558492,2,2,2,2
2025-09-03 13:39:01.045,-521189,-584154,-584220,-575218,2,2,2,2
2025-09-03 13:39:01.048,-521113,-584144,-584216,-558810,2,2,2,2
2025-09-03 13:39:01.051,-520968,-583937,-584133,-558603,2,2,2,2
2025-09-03 13:39:01.054,-521098,-583873,-583954,-574873,2,2,2,2
2025-09-03 13:39:01.056,-521096,-583879,-583946,-574935,2,2,2,2
2025-09-03 13:39:01.059,-520947,-583922,-583990,-558337,2,2,2,2
2025-09-03 13:39:01.062,-520959,-583681,-584077,-558349,2,2,2,2
2025-09-03 13:39:01.065,-520999,-583706,-584161,-558441,2,2,2,2
2025-09-03 13:39:01.067,-521095,-575621,-583940,-558484,2,2,2,2
2025-09-03 13:39:01.070,-521154,-583803,-583945,-558480,2,2,2,2
2025-09-03 13:39:01.073,-520929,-583900,-584045,-558574,2,2,2,2
2025-09-03 13:39:01.075,-520960,-583686,-584067,-574745,2,2,2,2
2025-09-03 13:39:01.078,-521193,-583905,-584042,-558591,2,2,2,2
2025-09-03 13:39:01.081,-520971,-583928,-575875,-558356,2,2,2,2
2025-09-03 13:39:01.084,-520960,-583928,-584060,-558338,2,2,2,2
2025-09-03 13:39:01.086,-521088,-583875,-583939,-574936,2,2,2,2
2025-09-03 13:39:01.089,-520977,-583988,-584083,-558696,2,2,2,2
2025-09-03 13:39:01.092,-520991,-583779,-575985,-558390,2,2,2,2
2025-09-03 13:39:01.095,-520851,-583898,-584044,-574953,2,2,2,2
2025-09-03 13:39:01.097,-521020,-583800,-583938,-558473,2,2,2,2
2025-09-03 13:39:01.100,-520976,-583701,-584089,-574756,2,2,2,2
2025-09-03 13:39:01.102,-521073,-583740,-583951,-574928,2,2,2,2
2025-09-03 13:39:01.105,-520860,-583911,-584055,-574970,2,2,2,2
2025-09-03 13:39:01.108,-520862,-583920,-584056,-574967,2,2,2,2
2025-09-03 13:39:01.111,-520955,-583691,-584088,-558353,2,2,2,2
2025-09-03 13:39:01.114,-520992,-583778,-584184,-558390,2,2,2,2
2025-09-03 13:39:01.117,-520984,-583975,-584177,-575089,2,2,2,2
2025-09-03 13:39:01.120,-521201,-583926,-584075,-574976,2,2,2,2
2025-09-03 13:39:01.122,-520968,-583704,-584164,-558436,2,2,2,2
2025-09-03 13:39:01.125,-520951,-583700,-584145,-558360,2,2,2,2
2025-09-03 13:39:01.128,-520935,-575494,-584132,-558343,2,2,2,2
2025-09-03 13:39:01.130,-520966,-583779,-584165,-558360,2,2,2,2
2025-09-03 13:39:01.133,-521087,-575640,-583960,-558476,2,2,2,2
2025-09-03 13:39:01.135,-520947,-583685,-584073,-558592,2,2,2,2
2025-09-03 13:39:01.138,-520720,-583719,-583908,-574754,2,2,2,2
2025-09-03 13:39:01.141,-521075,-583818,-583946,-558459,2,2,2,2
2025-09-03 13:39:01.144,-521080,-583822,-583956,-558470,2,2,2,2
2025-09-03 13:39:01.147,-521073,-583997,-584193,-575101,2,2,2,2
2025-09-03 13:39:01.149,-521213,-583996,-584084,-574982,2,2,2,2
2025-09-03 13:39:01.152,-521168,-584165,-584263,-558739,2,2,2,2
2025-09-03 13:39:01.155,-521061,-583802,-584181,-558374,2,2,2,2
2025-09-03 13:39:01.157,-521188,-583931,-583986,-558580,2,2,2,2
2025-09-03 13:39:01.160,-521207,-583945,-584072,-558589,2,2,2,2
2025-09-03 13:39:01.162,-520964,-583957,-584081,-558608,2,2,2,2
2025-09-03 13:39:01.165,-520990,-583988,-584178,-575045,2,2,2,2
2025-09-03 13:39:01.168,-521158,-584091,-584218,-558740,2,2,2,2
2025-09-03 13:39:01.170,-521070,-584136,-584207,-575108,2,2,2,2
2025-09-03 13:39:01.173,-521007,-584078,-584201,-558723,2,2,2,2
2025-09-03 13:39:01.175,-521105,-584167,-584293,-575194,2,2,2,2
2025-09-03 13:39:01.178,-521019,-584071,-584204,-558723,2,2,2,2
2025-09-03 13:39:01.181,-521188,-584188,-584313,-575220,2,2,2,2
2025-09-03 13:39:01.183,-521232,-583980,-584418,-575043,2,2,2,2
2025-09-03 13:39:01.186,-521210,-583939,-584325,-558847,2,2,2,2
2025-09-03 13:39:01.189,-521169,-584161,-584222,-558819,2,2,2,2
2025-09-03 13:39:01.192,-521165,-583937,-584311,-558834,2,2,2,2
2025-09-03 13:39:01.194,-521248,-575858,-584419,-558695,2,2,2,2
2025-09-03 13:39:01.197,-521017,-584076,-584195,-558727,2,2,2,2
2025-09-03 13:39:01.200,-521252,-584062,-584438,-558713,2,2,2,2
2025-09-03 13:39:01.203,-521157,-584161,-584197,-558731,2,2,2,2
2025-09-03 13:39:01.205,-521215,-584007,-584076,-575000,2,2,2,2
2025-09-03 13:39:01.208,-521096,-583832,-583947,-558467,2,2,2,2
2025-09-03 13:39:01.211,-521116,-575724,-583973,-558488,2,2,2,2
2025-09-03 13:39:01.213,-521103,-583897,-583958,-558535,2,2,2,2
2025-09-03 13:39:01.216,-521193,-583930,-584053,-574927,2,2,2,2
2025-09-03 13:39:01.219,-520961,-583955,-575888,-558588,2,2,2,2
2025-09-03 13:39:01.222,-521120,-583927,-584048,-574920,2,2,2,2
2025-09-03 13:39:01.224,-521012,-583814,-583940,-558450,2,2,2,2
2025-09-03 13:39:01.227,-521180,-583923,-583974,-558490,2,2,2,2
2025-09-03 13:39:01.230,-520967,-584034,-584075,-558596,2,2,2,2
2025-09-03 13:39:01.232,-521191,-583940,-584053,-558566,2,2,2,2
2025-09-03 13:39:01.235,-521138,-583920,-575775,-558536,2,2,2,2
2025-09-03 13:39:01.238,-521003,-583810,-584180,-558368,2,2,2,2
2025-09-03 13:39:01.241,-521214,-583959,-584143,-558586,2,2,2,2
2025-09-03 13:39:01.244,-521211,-583959,-584080,-558590,2,2,2,2
2025-09-03 13:39:01.246,-520966,-583964,-584083,-558587,2,2,2,2
2025-09-03 13:39:01.249,-521120,-583940,-583994,-558490,2,2,2,2
2025-09-03 13:39:01.252,-520975,-584050,-584161,-558597,2,2,2,2
2025-09-03 13:39:01.255,-520963,-583974,-584081,-574984,2,2,2,2
2025-09-03 13:39:01.258,-521216,-583964,-584150,-558597,2,2,2,2
2025-09-03 13:39:01.261,-521192,-575758,-583994,-558567,2,2,2,2
2025-09-03 13:39:01.264,-521089,-584167,-584212,-558725,2,2,2,2
2025-09-03 13:39:01.267,-521169,-583923,-583970,-558473,2,2,2,2
2025-09-03 13:39:01.269,-520983,-575612,-584166,-558355,2,2,2,2
2025-09-03 13:39:01.272,-521003,-584093,-584199,-558703,2,2,2,2
2025-09-03 13:39:01.275,-520962,-583984,-584084,-574979,2,2,2,2
2025-09-03 13:39:01.278,-521102,-584191,-576104,-558803,2,2,2,2
2025-09-03 13:39:01.280,-521022,-584180,-584215,-558727,2,2,2,2
2025-09-03 13:39:01.283,-521190,-583964,-584314,-558824,2,2,2,2
2025-09-03 13:39:01.285,-521082,-584167,-584201,-575101,2,2,2,2
2025-09-03 13:39:01.288,-520991,-583890,-584175,-574752,2,2,2,2
2025-09-03 13:39:01.291,-520991,-583887,-584174,-574777,2,2,2,2
2025-09-03 13:39:01.293,-520998,-583820,-584179,-558361,2,2,2,2
2025-09-03 13:39:01.296,-520995,-583832,-584179,-558365,2,2,2,2
2025-09-03 13:39:01.298,-521073,-583907,-583943,-558380,2,2,2,2
2025-09-03 13:39:01.301,-520986,-584077,-584142,-558612,2,2,2,2
2025-09-03 13:39:01.304,-521213,-584051,-584148,-558593,2,2,2,2
2025-09-03 13:39:01.306,-521058,-583863,-583940,-574831,2,2,2,2
2025-09-03 13:39:01.309,-521102,-583938,-584052,-574902,2,2,2,2
2025-09-03 13:39:01.312,-520983,-583822,-584181,-558371,2,2,2,2
2025-09-03 13:39:01.315,-520948,-583786,-575884,-558573,2,2,2,2
2025-09-03 13:39:01.318,-520933,-583702,-584058,-558563,2,2,2,2
2025-09-03 13:39:01.320,-520908,-583927,-584007,-558472,2,2,2,2
2025-09-03 13:39:01.323,-520826,-583911,-583967,-558458,2,2,2,2
2025-09-03 13:39:01.326,-520953,-583780,-584075,-558588,2,2,2,2
2025-09-03 13:39:01.329,-520990,-575889,-584186,-558622,2,2,2,2
2025-09-03 13:39:01.331,-521057,-584086,-584185,-558622,2,2,2,2
2025-09-03 13:39:01.335,-521118,-583929,-584040,-574858,2,2,2,2
2025-09-03 13:39:01.337,-521189,-575756,-583995,-558485,2,2,2,2
2025-09-03 13:39:01.340,-520930,-583687,-584130,-558481,2,2,2,2
2025-09-03 13:39:01.343,-520740,-583822,-583934,-558368,2,2,2,2
2025-09-03 13:39:01.346,-521071,-583840,-583943,-558440,2,2,2,2
2025-09-03 13:39:01.348,-521058,-583889,-584185,-574741,2,2,2,2
2025-09-03 13:39:01.351,-521014,-583915,-583956,-558442,2,2,2,2
2025-09-03 13:39:01.354,-521073,-583905,-583953,-558371,2,2,2,2
2025-09-03 13:39:01.357,-521080,-583877,-583951,-574826,2,2,2,2
2025-09-03 13:39:01.360,-521177,-583954,-584059,-558487,2,2,2,2
2025-09-03 13:39:01.362,-520981,-583825,-584177,-558353,2,2,2,2
2025-09-03 13:39:01.365,-521212,-583983,-584087,-574957,2,2,2,2
2025-09-03 13:39:01.368,-521083,-583925,-584036,-558455,2,2,2,2
2025-09-03 13:39:01.371,-520964,-583802,-584137,-558338,2,2,2,2
2025-09-03 13:39:01.374,-520987,-583832,-584190,-558370,2,2,2,2
2025-09-03 13:39:01.376,-521208,-584052,-584150,-558587,2,2,2,2
2025-09-03 13:39:01.379,-521076,-584182,-584210,-558717,2,2,2,2
2025-09-03 13:39:01.382,-521018,-584187,-584206,-558722,2,2,2,2
2025-09-03 13:39:01.385,-521220,-584062,-584377,-558593,2,2,2,2
2025-09-03 13:39:01.388,-521068,-584168,-584195,-575092,2,2,2,2
2025-09-03 13:39:01.390,-520978,-584078,-584176,-558622,2,2,2,2
2025-09-03 13:39:01.393,-521087,-583932,-583966,-558533,2,2,2,2
2025-09-03 13:39:01.396,-521003,-583912,-583946,-558444,2,2,2,2
2025-09-03 13:39:01.399,-521031,-583907,-584189,-558385,2,2,2,2
2025-09-03 13:39:01.402,-520930,-583711,-584057,-574912,2,2,2,2
2025-09-03 13:39:01.405,-520825,-583911,-583955,-558390,2,2,2,2
2025-09-03 13:39:01.407,-520972,-583882,-584176,-574735,2,2,2,2
2025-09-03 13:39:01.410,-521008,-583913,-583940,-558435,2,2,2,2
2025-09-03 13:39:01.413,-520974,-575880,-584164,-558595,2,2,2,2
2025-09-03 13:39:01.415,-521207,-584015,-584082,-558581,2,2,2,2
2025-09-03 13:39:01.418,-521113,-583938,-584307,-558809,2,2,2,2
2025-09-03 13:39:01.421,-521155,-583957,-576121,-558824,2,2,2,2
2025-09-03 13:39:01.424,-520979,-583990,-584165,-574992,2,2,2,2
2025-09-03 13:39:01.426,-521159,-583924,-583967,-558473,2,2,2,2
2025-09-03 13:39:01.429,-520970,-584051,-584130,-558596,2,2,2,2
2025-09-03 13:39:01.431,-521003,-584085,-584201,-558696,2,2,2,2
2025-09-03 13:39:01.434,-520969,-584046,-584128,-558607,2,2,2,2
2025-09-03 13:39:01.437,-521087,-583913,-583963,-558397,2,2,2,2
2025-09-03 13:39:01.439,-521016,-583914,-583963,-558455,2,2,2,2
2025-09-03 13:39:01.442,-521203,-575841,-584149,-558580,2,2,2,2
2025-09-03 13:39:01.445,-521150,-583945,-584313,-558740,2,2,2,2
2025-09-03 13:39:01.448,-521265,-584060,-576228,-558599,2,2,2,2
