Timestamp,Ch1,Ch2,Ch3,Ch4,Ch5,Ch6,Ch7,Ch8
2025-09-03 13:05:11.208,-1636412,-4747925,-6825411,-7869198,2,2,2,2
2025-09-03 13:05:11.210,-3733759,-6828600,-6841632,-3675015,2,2,2,2
2025-09-03 13:05:11.211,-1636290,-6844919,-2630659,-7869035,2,2,2,2
2025-09-03 13:05:11.214,-1636201,-6844799,-2638986,-7869164,2,2,2,2
2025-09-03 13:05:11.216,-1636361,-6844959,-2638955,-7869136,2,2,2,2
2025-09-03 13:05:11.219,-1636486,-6828681,-6841574,-3683074,2,2,2,2
2025-09-03 13:05:11.222,-1636359,-4747784,-6825001,-7869052,2,2,2,2
2025-09-03 13:05:11.224,-1636238,-6844820,-2647289,-7868932,2,2,2,2
2025-09-03 13:05:11.227,-1636225,-6828405,-6841244,-3682797,2,2,2,2
2025-09-03 13:05:11.229,-1636350,-6844918,-2647066,-7868960,2,2,2,2
2025-09-03 13:05:11.232,-1636043,-6844641,-2630412,-7868687,2,2,2,2
2025-09-03 13:05:11.235,-1636159,-2650478,-6824917,-7868820,2,2,2,2
2025-09-03 13:05:11.238,-1636231,-6828344,-6841244,-7868823,2,2,2,2
2025-09-03 13:05:11.240,-1636252,-6844875,-6841322,-7868903,2,2,2,2
2025-09-03 13:05:11.244,-3733392,-6828412,-6841247,-3674511,2,2,2,2
2025-09-03 13:05:11.246,-1636206,-6844702,-2638711,-7868721,2,2,2,2
2025-09-03 13:05:11.248,-1636091,-6844574,-6824706,-7868923,2,2,2,2
2025-09-03 13:05:11.251,-1636331,-2650505,-6841325,-7868898,2,2,2,2
2025-09-03 13:05:11.253,-1636214,-2650388,-6841149,-7868781,2,2,2,2
2025-09-03 13:05:11.256,-1636076,-6828156,-6841330,-3682707,2,2,2,2
2025-09-03 13:05:11.259,-1636104,-2650345,-6824717,-7868921,2,2,2,2
2025-09-03 13:05:11.261,-1636193,-6844670,-2646882,-7868682,2,2,2,2
2025-09-03 13:05:11.264,-1635969,-6844446,-2646910,-7868705,2,2,2,2
2025-09-03 13:05:11.267,-1636068,-6844522,-2646940,-7868719,2,2,2,2
2025-09-03 13:05:11.269,-1636038,-4747273,-6824904,-7868697,2,2,2,2
2025-09-03 13:05:11.272,-1635967,-6844418,-2646902,-7868688,2,2,2,2
2025-09-03 13:05:11.274,-1635920,-6844658,-2638692,-7868666,2,2,2,2
2025-09-03 13:05:11.277,-3732993,-6828169,-6841079,-3682442,2,2,2,2
2025-09-03 13:05:11.280,-3733240,-6828156,-6841073,-3674230,2,2,2,2
2025-09-03 13:05:11.283,-1635893,-6844400,-6824477,-7868649,2,2,2,2
2025-09-03 13:05:11.287,-1635889,-4747168,-6824502,-7868568,2,2,2,2
2025-09-03 13:05:11.289,-1636045,-6844405,-6824525,-7868657,2,2,2,2
2025-09-03 13:05:11.291,-1635839,-6844206,-4743911,-7868486,2,2,2,2
2025-09-03 13:05:11.294,-1635803,-6844411,-6824572,-7868399,2,2,2,2
2025-09-03 13:05:11.297,-1635811,-6828030,-6840962,-3674102,2,2,2,2
2025-09-03 13:05:11.299,-1635829,-6844185,-2638487,-7868425,2,2,2,2
2025-09-03 13:05:11.302,-1635802,-4747261,-6824571,-7868397,2,2,2,2
2025-09-03 13:05:11.304,-1635637,-4747158,-6824508,-7868289,2,2,2,2
2025-09-03 13:05:11.308,-1635693,-2649987,-6840842,-7868278,2,2,2,2
2025-09-03 13:05:11.310,-1635587,-6844258,-2646425,-7868164,2,2,2,2
2025-09-03 13:05:11.313,-1635588,-6844261,-2638321,-7868173,2,2,2,2
2025-09-03 13:05:11.315,-1635786,-6844168,-2638234,-7868386,2,2,2,2
2025-09-03 13:05:11.318,-1635628,-4746874,-6824199,-7868190,2,2,2,2
2025-09-03 13:05:11.321,-1635837,-6844168,-2646500,-7868388,2,2,2,2
2025-09-03 13:05:11.324,-1635690,-2649703,-6840583,-7868175,2,2,2,2
2025-09-03 13:05:11.326,-1635559,-6844141,-2638209,-7868103,2,2,2,2
2025-09-03 13:05:11.329,-3732744,-6827521,-6840803,-7868063,2,2,2,2
2025-09-03 13:05:11.332,-1635592,-6844170,-6840731,-7868315,2,2,2,2
2025-09-03 13:05:11.334,-1635784,-6844042,-6824296,-7868263,2,2,2,2
2025-09-03 13:05:11.337,-1635817,-6844114,-6840699,-7868276,2,2,2,2
2025-09-03 13:05:11.340,-1635701,-2641513,-6840581,-7868159,2,2,2,2
2025-09-03 13:05:11.342,-1635559,-6827723,-6840687,-7867931,2,2,2,2
2025-09-03 13:05:11.345,-1635560,-6844042,-2646379,-7867932,2,2,2,2
2025-09-03 13:05:11.348,-1635540,-4746609,-6823991,-7867896,2,2,2,2
2025-09-03 13:05:11.351,-1635563,-6843846,-4743294,-7867922,2,2,2,2
2025-09-03 13:05:11.353,-1635389,-4746516,-6824186,-7867803,2,2,2,2
2025-09-03 13:05:11.357,-1635451,-2649376,-6840573,-7867876,2,2,2,2
2025-09-03 13:05:11.360,-1635345,-6843875,-4743312,-7867719,2,2,2,2
2025-09-03 13:05:11.362,-1635458,-2641174,-6840326,-7867805,2,2,2,2
2025-09-03 13:05:11.365,-1635222,-6843682,-6840336,-7867881,2,2,2,2
2025-09-03 13:05:11.367,-3732459,-6827318,-6840425,-3673592,2,2,2,2
2025-09-03 13:05:11.370,-1635348,-6843800,-2629761,-7867667,2,2,2,2
2025-09-03 13:05:11.373,-1635228,-6843677,-4743181,-7867833,2,2,2,2
2025-09-03 13:05:11.375,-1635359,-6843860,-4743308,-7867663,2,2,2,2
2025-09-03 13:05:11.378,-1635259,-6843668,-2637830,-7867851,2,2,2,2
2025-09-03 13:05:11.381,-1635103,-6843542,-6823819,-7867673,2,2,2,2
2025-09-03 13:05:11.384,-1635211,-6827258,-6823908,-3673460,2,2,2,2
2025-09-03 13:05:11.386,-1635326,-6827324,-6840343,-3673575,2,2,2,2
2025-09-03 13:05:11.389,-1635272,-4746476,-6823878,-7867750,2,2,2,2
2025-09-03 13:05:11.392,-1635187,-2649236,-6823897,-7867664,2,2,2,2
2025-09-03 13:05:11.395,-1635199,-2649316,-6823902,-7867673,2,2,2,2
2025-09-03 13:05:11.397,-1635307,-2649096,-6823693,-7867528,2,2,2,2
2025-09-03 13:05:11.400,-1635086,-6827079,-6823803,-3673320,2,2,2,2
2025-09-03 13:05:11.403,-1635284,-6843634,-6823682,-7867495,2,2,2,2
2025-09-03 13:05:11.406,-1635318,-6843643,-4726544,-7867468,2,2,2,2
2025-09-03 13:05:11.408,-1635097,-6843441,-4726654,-7867605,2,2,2,2
2025-09-03 13:05:11.411,-1635109,-4746351,-6823876,-7867541,2,2,2,2
2025-09-03 13:05:11.415,-1635074,-2649100,-6823711,-7867505,2,2,2,2
2025-09-03 13:05:11.417,-1635229,-6843617,-2637814,-7867400,2,2,2,2
2025-09-03 13:05:11.420,-1635170,-6827079,-6823800,-3673227,2,2,2,2
2025-09-03 13:05:11.423,-1634952,-6843271,-2637464,-7867379,2,2,2,2
2025-09-03 13:05:11.425,-1634856,-6843163,-6823560,-7867278,2,2,2,2
2025-09-03 13:05:11.428,-1634839,-4746000,-6823537,-7867257,2,2,2,2
2025-09-03 13:05:11.431,-1634931,-6843170,-4726405,-7867280,2,2,2,2
2025-09-03 13:05:11.434,-1634964,-6843336,-2629352,-7867375,2,2,2,2
2025-09-03 13:05:11.437,-1634967,-6843267,-2629360,-7867367,2,2,2,2
2025-09-03 13:05:11.439,-1634951,-2648931,-6823636,-7867274,2,2,2,2
2025-09-03 13:05:11.442,-1634714,-6826612,-6823406,-3672728,2,2,2,2
2025-09-03 13:05:11.445,-1634674,-2648598,-6823362,-7866991,2,2,2,2
2025-09-03 13:05:11.448,-1634801,-6843031,-2629113,-7867120,2,2,2,2
2025-09-03 13:05:11.451,-1634812,-6843115,-6823435,-7867120,2,2,2,2
2025-09-03 13:05:11.453,-1634878,-4746012,-6823551,-7867240,2,2,2,2
2025-09-03 13:05:11.457,-1634784,-2648706,-6823406,-7867020,2,2,2,2
2025-09-03 13:05:11.459,-1634702,-6842917,-6823327,-7866996,2,2,2,2
2025-09-03 13:05:11.462,-1634811,-6843017,-2628874,-7867091,2,2,2,2
2025-09-03 13:05:11.465,-3731822,-6826510,-6823301,-3672589,2,2,2,2
2025-09-03 13:05:11.468,-1634682,-6842884,-6823294,-7866891,2,2,2,2
2025-09-03 13:05:11.470,-1634668,-6843131,-4726133,-7867122,2,2,2,2
2025-09-03 13:05:11.473,-1634710,-2640411,-6823397,-7866907,2,2,2,2
2025-09-03 13:05:11.476,-1634623,-6842882,-6823299,-7867136,2,2,2,2
2025-09-03 13:05:11.479,-1634807,-6842996,-2629110,-7866918,2,2,2,2
2025-09-03 13:05:11.482,-1634673,-6843037,-2628970,-7867098,2,2,2,2
2025-09-03 13:05:11.484,-3731826,-6826726,-6823283,-3672734,2,2,2,2
2025-09-03 13:05:11.487,-1634563,-2648699,-6823173,-7866993,2,2,2,2
2025-09-03 13:05:11.490,-1634794,-6842984,-2637294,-7866902,2,2,2,2
2025-09-03 13:05:11.492,-1634567,-2648447,-6823178,-7866737,2,2,2,2
2025-09-03 13:05:11.495,-3731814,-6826423,-6823280,-3672465,2,2,2,2
2025-09-03 13:05:11.498,-1634675,-6842777,-2628974,-7866763,2,2,2,2
2025-09-03 13:05:11.501,-1634713,-6842881,-6823325,-7866868,2,2,2,2
2025-09-03 13:05:11.503,-1634806,-6842909,-4726020,-7866935,2,2,2,2
2025-09-03 13:05:11.506,-1634572,-6842980,-6823173,-7866981,2,2,2,2
2025-09-03 13:05:11.509,-1634795,-4745729,-6823362,-7866874,2,2,2,2
2025-09-03 13:05:11.511,-1634780,-6842857,-6823303,-7866779,2,2,2,2
2025-09-03 13:05:11.514,-1634769,-4745632,-6823369,-7866767,2,2,2,2
2025-09-03 13:05:11.517,-3731851,-6826468,-6823309,-7866766,2,2,2,2
2025-09-03 13:05:11.520,-1634717,-6826433,-6823308,-3672462,2,2,2,2
2025-09-03 13:05:11.522,-3731738,-6826307,-6823180,-3672330,2,2,2,2
2025-09-03 13:05:11.525,-1634558,-6842627,-2637036,-7866846,2,2,2,2
2025-09-03 13:05:11.528,-1634442,-2648458,-6822961,-7866655,2,2,2,2
2025-09-03 13:05:11.530,-1634359,-2648427,-6822942,-7866648,2,2,2,2
2025-09-03 13:05:11.533,-1634553,-6826483,-6823139,-3672468,2,2,2,2
2025-09-03 13:05:11.536,-3731462,-6826233,-6823150,-3672211,2,2,2,2
2025-09-03 13:05:11.538,-1634404,-2648335,-6822922,-7866608,2,2,2,2
2025-09-03 13:05:11.541,-1634539,-2648222,-6823130,-7866492,2,2,2,2
2025-09-03 13:05:11.543,-1634417,-6826046,-6822941,-3672313,2,2,2,2
2025-09-03 13:05:11.546,-1634323,-4745468,-6822918,-7866518,2,2,2,2
2025-09-03 13:05:11.548,-1634308,-6842605,-4725748,-7866564,2,2,2,2
2025-09-03 13:05:11.551,-1634445,-6842481,-2628719,-7866619,2,2,2,2
2025-09-03 13:05:11.554,-1634531,-6826107,-6823031,-3672067,2,2,2,2
2025-09-03 13:05:11.556,-1634446,-6826086,-6823024,-3672309,2,2,2,2
2025-09-03 13:05:11.559,-1634446,-6842398,-4725859,-7866605,2,2,2,2
2025-09-03 13:05:11.562,-1625990,-6842397,-2628452,-7866340,2,2,2,2
2025-09-03 13:05:11.564,-1634056,-6825873,-6822812,-3671812,2,2,2,2
2025-09-03 13:05:11.567,-3731339,-6826046,-6822756,-3671965,2,2,2,2
2025-09-03 13:05:11.570,-1634165,-6842368,-2628607,-7866171,2,2,2,2
2025-09-03 13:05:11.573,-1634280,-6842229,-6822779,-7866346,2,2,2,2
2025-09-03 13:05:11.576,-1634063,-6842265,-6822634,-7866126,2,2,2,2
2025-09-03 13:05:11.579,-1625872,-6842328,-4725734,-7866127,2,2,2,2
2025-09-03 13:05:11.581,-1634088,-4745200,-6822659,-7866216,2,2,2,2
2025-09-03 13:05:11.584,-1634151,-6842343,-2628606,-7866145,2,2,2,2
2025-09-03 13:05:11.587,-1633951,-6842130,-2628128,-7866058,2,2,2,2
2025-09-03 13:05:11.590,-3730953,-6825598,-6822538,-3671797,2,2,2,2
2025-09-03 13:05:11.592,-3731169,-6825485,-6822497,-3671676,2,2,2,2
2025-09-03 13:05:11.595,-1633907,-6842009,-2628341,-7865861,2,2,2,2
2025-09-03 13:05:11.598,-1634048,-2647656,-6822458,-7865996,2,2,2,2
2025-09-03 13:05:11.600,-1633917,-6842009,-2636274,-7865850,2,2,2,2
2025-09-03 13:05:11.603,-1633943,-6842102,-6822422,-7865920,2,2,2,2
2025-09-03 13:05:11.606,-1625869,-6842161,-4725382,-7865994,2,2,2,2
2025-09-03 13:05:11.609,-1634282,-4745215,-6822706,-7866144,2,2,2,2
2025-09-03 13:05:11.612,-1634111,-4745103,-6822896,-7866342,2,2,2,2
2025-09-03 13:05:11.615,-1634060,-6842211,-2628477,-7866168,2,2,2,2
2025-09-03 13:05:11.618,-1633926,-6842075,-6822637,-7866059,2,2,2,2
2025-09-03 13:05:11.621,-1633923,-6842079,-4725504,-7866059,2,2,2,2
2025-09-03 13:05:11.623,-1634023,-6842102,-6822499,-7865865,2,2,2,2
2025-09-03 13:05:11.626,-1633891,-6825573,-6822288,-3671408,2,2,2,2
2025-09-03 13:05:11.629,-1633776,-6825466,-6822174,-3671300,2,2,2,2
2025-09-03 13:05:11.631,-1634021,-6842098,-6822457,-7865851,2,2,2,2
2025-09-03 13:05:11.634,-1633943,-6825655,-6822406,-3671522,2,2,2,2
2025-09-03 13:05:11.637,-1634046,-6825680,-6822501,-3671548,2,2,2,2
2025-09-03 13:05:11.639,-1633822,-6841871,-6822275,-7865619,2,2,2,2
2025-09-03 13:05:11.642,-1633642,-2639201,-6822355,-3671393,2,2,2,2
2025-09-03 13:05:11.644,-1633792,-6841852,-2627962,-7865594,2,2,2,2
2025-09-03 13:05:11.647,-1633667,-6825325,-6822298,-3671328,2,2,2,2
2025-09-03 13:05:11.650,-1633584,-6841631,-6822284,-7865699,2,2,2,2
2025-09-03 13:05:11.653,-1633760,-4744581,-6822141,-7865478,2,2,2,2
2025-09-03 13:05:11.655,-1633737,-4744566,-6822380,-7865709,2,2,2,2
2025-09-03 13:05:11.658,-3730925,-6825416,-6822145,-3671429,2,2,2,2
2025-09-03 13:05:11.661,-1633566,-6841855,-6822262,-7865549,2,2,2,2
2025-09-03 13:05:11.664,-1633662,-2639134,-6822360,-7865607,2,2,2,2
2025-09-03 13:05:11.666,-1633542,-6841837,-6822172,-7865492,2,2,2,2
2025-09-03 13:05:11.669,-1633792,-6841756,-6822156,-7865480,2,2,2,2
2025-09-03 13:05:11.672,-1633689,-2639225,-6822132,-7865376,2,2,2,2
2025-09-03 13:05:11.674,-1633475,-6841485,-2627587,-7865453,2,2,2,2
2025-09-03 13:05:11.677,-1633508,-6841465,-6822128,-7865364,2,2,2,2
2025-09-03 13:05:11.680,-1633526,-6841471,-2627839,-7865373,2,2,2,2
2025-09-03 13:05:11.683,-1625333,-6841538,-4724992,-7865408,2,2,2,2
2025-09-03 13:05:11.685,-1625328,-6841400,-4724977,-7865364,2,2,2,2
2025-09-03 13:05:11.688,-1633533,-6841547,-4724737,-7865400,2,2,2,2
2025-09-03 13:05:11.691,-1633538,-6825093,-6821896,-3671067,2,2,2,2
2025-09-03 13:05:11.694,-1633426,-6841362,-2627733,-7865322,2,2,2,2
2025-09-03 13:05:11.696,-1633433,-6824973,-6822040,-3671020,2,2,2,2
2025-09-03 13:05:11.699,-1633481,-4744438,-6822092,-7865226,2,2,2,2
2025-09-03 13:05:11.702,-1625091,-6841397,-2627594,-7865095,2,2,2,2
2025-09-03 13:05:11.704,-1633329,-2647267,-6821948,-7865206,2,2,2,2
2025-09-03 13:05:11.707,-1633505,-2647058,-6822115,-7865240,2,2,2,2
2025-09-03 13:05:11.710,-1633412,-6841570,-2627711,-7865137,2,2,2,2
2025-09-03 13:05:11.712,-1633406,-6841499,-2627706,-7865122,2,2,2,2
2025-09-03 13:05:11.715,-1633344,-2647266,-6821949,-7865204,2,2,2,2
2025-09-03 13:05:11.717,-1633290,-4744221,-6821895,-7865326,2,2,2,2
2025-09-03 13:05:11.720,-1633393,-6824845,-6821739,-3670794,2,2,2,2
2025-09-03 13:05:11.722,-1633497,-6841337,-6821816,-7865211,2,2,2,2
2025-09-03 13:05:11.725,-1633253,-6841329,-4724631,-7864950,2,2,2,2
2025-09-03 13:05:11.728,-1624986,-6841319,-4724624,-7864873,2,2,2,2
2025-09-03 13:05:11.731,-1633422,-6841230,-2627464,-7865111,2,2,2,2
2025-09-03 13:05:11.733,-1633394,-6824818,-6821658,-3670768,2,2,2,2
2025-09-03 13:05:11.736,-1633334,-4744057,-6821656,-7865077,2,2,2,2
2025-09-03 13:05:11.738,-1633505,-6841320,-2627459,-7865118,2,2,2,2
2025-09-03 13:05:11.741,-1633406,-2646900,-6821659,-7865068,2,2,2,2
2025-09-03 13:05:11.744,-1633035,-6824710,-6821616,-3670662,2,2,2,2
2025-09-03 13:05:11.746,-1633250,-4744169,-6821847,-7864929,2,2,2,2
2025-09-03 13:05:11.749,-1633271,-6841070,-2627232,-7864867,2,2,2,2
2025-09-03 13:05:11.752,-1633249,-2646680,-6821578,-7864840,2,2,2,2
2025-09-03 13:05:11.755,-1633031,-6841087,-2627318,-7864889,2,2,2,2
2025-09-03 13:05:11.757,-1633144,-6840857,-2635290,-7864788,2,2,2,2
2025-09-03 13:05:11.760,-1633053,-4743685,-6821632,-7864695,2,2,2,2
2025-09-03 13:05:11.763,-3730304,-6824498,-6821483,-7864732,2,2,2,2
2025-09-03 13:05:11.766,-1633047,-2638346,-6821628,-7864674,2,2,2,2
2025-09-03 13:05:11.768,-1633125,-2638607,-6821644,-7864941,2,2,2,2
2025-09-03 13:05:11.771,-1633261,-6840966,-6821511,-7864732,2,2,2,2
2025-09-03 13:05:11.774,-1633246,-6840958,-6821488,-7864721,2,2,2,2
2025-09-03 13:05:11.776,-1633077,-6840844,-6821380,-7864598,2,2,2,2
2025-09-03 13:05:11.779,-1633003,-6841026,-4724353,-7864712,2,2,2,2
2025-09-03 13:05:11.782,-1633044,-4743829,-6821563,-7864810,2,2,2,2
2025-09-03 13:05:11.785,-1633006,-2646644,-6821440,-7864714,2,2,2,2
2025-09-03 13:05:11.788,-1633123,-2646753,-6821612,-7864819,2,2,2,2
2025-09-03 13:05:11.790,-1632835,-6840814,-2635257,-7864572,2,2,2,2
2025-09-03 13:05:11.793,-3730176,-6824251,-6821262,-7864452,2,2,2,2
2025-09-03 13:05:11.797,-1624581,-6840638,-2626959,-7864514,2,2,2,2
2025-09-03 13:05:11.800,-1632908,-6840592,-2635037,-7864327,2,2,2,2
2025-09-03 13:05:11.802,-3730167,-6824246,-6821253,-7864429,2,2,2,2
2025-09-03 13:05:11.805,-1632785,-6840777,-6821280,-7864458,2,2,2,2
2025-09-03 13:05:11.808,-1632827,-6840821,-6821128,-7864549,2,2,2,2
2025-09-03 13:05:11.811,-1632865,-6840791,-6821362,-7864460,2,2,2,2
2025-09-03 13:05:11.814,-1624677,-6840782,-2627049,-7864380,2,2,2,2
2025-09-03 13:05:11.817,-1632785,-2646387,-6821328,-7864425,2,2,2,2
2025-09-03 13:05:11.819,-1632660,-6840570,-2635027,-7929831,2,2,2,2
2025-09-03 13:05:11.822,-3730031,-6824336,-6821346,-3670136,2,2,2,2
2025-09-03 13:05:11.824,-1632672,-2646267,-6821146,-7929828,2,2,2,2
2025-09-03 13:05:11.827,-1632651,-6824096,-6821126,-3735436,2,2,2,2
2025-09-03 13:05:11.830,-1632536,-6840371,-2626712,-7929628,2,2,2,2
2025-09-03 13:05:11.833,-1632516,-2646038,-6821058,-7929852,2,2,2,2
2025-09-03 13:05:11.835,-3729824,-6824140,-6820890,-3735446,2,2,2,2
2025-09-03 13:05:11.838,-3729807,-6824133,-6820882,-3735429,2,2,2,2
2025-09-03 13:05:11.841,-1632747,-2646017,-6820918,-7929754,2,2,2,2
2025-09-03 13:05:11.843,-1632759,-2646019,-6820918,-7929750,2,2,2,2
2025-09-03 13:05:11.846,-1632636,-6840452,-2634998,-7929616,2,2,2,2
2025-09-03 13:05:11.848,-1632648,-2646157,-6820867,-7929631,2,2,2,2
2025-09-03 13:05:11.851,-1632666,-2646169,-6820889,-7929705,2,2,2,2
2025-09-03 13:05:11.854,-1632642,-2646144,-6821118,-7929611,2,2,2,2
2025-09-03 13:05:11.856,-1632757,-6840572,-2634868,-7929795,2,2,2,2
2025-09-03 13:05:11.859,-1632700,-6840466,-2634767,-7929637,2,2,2,2
2025-09-03 13:05:11.862,-1632610,-6840344,-6821014,-7929569,2,2,2,2
2025-09-03 13:05:11.864,-1632622,-2637853,-6821091,-3735197,2,2,2,2
2025-09-03 13:05:11.867,-1632659,-6840454,-2634760,-7929614,2,2,2,2
2025-09-03 13:05:11.869,-3729824,-6824080,-6820881,-3735314,2,2,2,2
2025-09-03 13:05:11.872,-1632635,-2637935,-6821105,-7929503,2,2,2,2
2025-09-03 13:05:11.875,-1632531,-6823923,-6820983,-7929452,2,2,2,2
2025-09-03 13:05:11.878,-1632520,-2637800,-6820913,-3735071,2,2,2,2
2025-09-03 13:05:11.880,-1632550,-6840322,-6821000,-7929460,2,2,2,2
2025-09-03 13:05:11.883,-1632470,-6823797,-6820863,-7929575,2,2,2,2
2025-09-03 13:05:11.886,-1632273,-6823921,-6820726,-7929366,2,2,2,2
2025-09-03 13:05:11.889,-1624073,-6823661,-4723566,-7929090,2,2,2,2
2025-09-03 13:05:11.891,-1623964,-6823478,-4723460,-7929311,2,2,2,2
2025-09-03 13:05:11.894,-1632246,-6823561,-6820625,-3735016,2,2,2,2
2025-09-03 13:05:11.897,-1632272,-6823564,-6820678,-7929336,2,2,2,2
2025-09-03 13:05:11.899,-1624085,-6823631,-4723563,-7929335,2,2,2,2
2025-09-03 13:05:11.902,-1632268,-2637452,-6820653,-3735032,2,2,2,2
2025-09-03 13:05:11.904,-1632372,-6823658,-2626434,-7929107,2,2,2,2
2025-09-03 13:05:11.907,-1632500,-6823786,-6820857,-7929227,2,2,2,2
2025-09-03 13:05:11.910,-1632359,-6823656,-4723583,-7929336,2,2,2,2
2025-09-03 13:05:11.912,-1632312,-6823669,-6820753,-7929089,2,2,2,2
2025-09-03 13:05:11.915,-1632386,-2629367,-6820821,-7929096,2,2,2,2
2025-09-03 13:05:11.918,-1632362,-6823645,-6820736,-7929296,2,2,2,2
2025-09-03 13:05:11.921,-1632353,-2629261,-6820654,-7929243,2,2,2,2
2025-09-03 13:05:11.924,-3729283,-6823662,-6820499,-7929078,2,2,2,2
2025-09-03 13:05:11.927,-1632197,-6823658,-6820500,-7929083,2,2,2,2
2025-09-03 13:05:11.929,-1632211,-4726277,-6820544,-7929094,2,2,2,2
2025-09-03 13:05:11.932,-1624053,-6823457,-4723203,-7928890,2,2,2,2
2025-09-03 13:05:11.935,-1632123,-2637467,-6820416,-3734676,2,2,2,2
2025-09-03 13:05:11.937,-1632194,-4726511,-6820531,-7929062,2,2,2,2
2025-09-03 13:05:11.940,-1632236,-6823431,-6820542,-7929080,2,2,2,2
2025-09-03 13:05:11.943,-1623946,-6823646,-4723336,-7928972,2,2,2,2
2025-09-03 13:05:11.945,-1632006,-2637336,-6820362,-3734544,2,2,2,2
2025-09-03 13:05:11.948,-1632022,-2629217,-6820386,-7928931,2,2,2,2
2025-09-03 13:05:11.951,-1632241,-6823416,-6820593,-3734759,2,2,2,2
2025-09-03 13:05:11.953,-1632100,-6823272,-2626077,-7928859,2,2,2,2
2025-09-03 13:05:11.956,-1632001,-4726022,-6820347,-7928823,2,2,2,2
2025-09-03 13:05:11.959,-1631760,-6823187,-2625812,-7928584,2,2,2,2
2025-09-03 13:05:11.962,-1631865,-2628982,-6820146,-7928681,2,2,2,2
2025-09-03 13:05:11.965,-1631885,-2629011,-6820293,-7928706,2,2,2,2
2025-09-03 13:05:11.967,-1631940,-2628990,-6820290,-7928680,2,2,2,2
2025-09-03 13:05:11.970,-1631997,-6823150,-2634221,-7928792,2,2,2,2
2025-09-03 13:05:11.973,-1631819,-6822942,-2634015,-7928576,2,2,2,2
2025-09-03 13:05:11.975,-1631756,-6823148,-4722941,-7928500,2,2,2,2
2025-09-03 13:05:11.978,-1623534,-6823116,-4722920,-7928367,2,2,2,2
2025-09-03 13:05:11.981,-1631759,-6823066,-6820088,-7928459,2,2,2,2
2025-09-03 13:05:11.984,-1631513,-2628593,-6819849,-7928477,2,2,2,2
2025-09-03 13:05:11.987,-1631721,-2628730,-6820055,-7928430,2,2,2,2
2025-09-03 13:05:11.990,-1631745,-2628764,-6820079,-7928448,2,2,2,2
2025-09-03 13:05:11.992,-1631745,-6823044,-2625763,-7928423,2,2,2,2
2025-09-03 13:05:11.995,-3728784,-6822947,-6819965,-7928321,2,2,2,2
2025-09-03 13:05:11.998,-1631754,-6823065,-2633967,-7928373,2,2,2,2
2025-09-03 13:05:12.001,-1631849,-6823148,-2625808,-7928521,2,2,2,2
2025-09-03 13:05:12.004,-1631730,-4725875,-6820023,-7928337,2,2,2,2
2025-09-03 13:05:12.006,-3728654,-6822800,-6820078,-3734047,2,2,2,2
2025-09-03 13:05:12.009,-1631713,-4725518,-6819891,-7928292,2,2,2,2
2025-09-03 13:05:12.012,-1631496,-6822782,-2625512,-7928071,2,2,2,2
2025-09-03 13:05:12.015,-1631742,-2628471,-6820052,-7928315,2,2,2,2
2025-09-03 13:05:12.017,-3728666,-6822782,-6819821,-3733778,2,2,2,2
2025-09-03 13:05:12.020,-3728672,-6822795,-6819841,-3733783,2,2,2,2
2025-09-03 13:05:12.023,-3728495,-6822579,-6819838,-3733860,2,2,2,2
2025-09-03 13:05:12.026,-1631473,-6822424,-6819722,-7928037,2,2,2,2
2025-09-03 13:05:12.028,-1623066,-6822462,-2625522,-7928071,2,2,2,2
2025-09-03 13:05:12.032,-1631383,-6822596,-6819687,-3733618,2,2,2,2
2025-09-03 13:05:12.034,-1631363,-6822611,-6819608,-7927839,2,2,2,2
2025-09-03 13:05:12.037,-3728627,-6822652,-6819708,-3733645,2,2,2,2
2025-09-03 13:05:12.039,-1631385,-2628326,-6819627,-7927911,2,2,2,2
2025-09-03 13:05:12.042,-1631483,-6822408,-6819728,-7927949,2,2,2,2
2025-09-03 13:05:12.045,-1631247,-6822415,-6819741,-7927963,2,2,2,2
2025-09-03 13:05:12.048,-1631487,-6822651,-2625403,-7927863,2,2,2,2
2025-09-03 13:05:12.050,-3728487,-6822455,-6819735,-3733645,2,2,2,2
2025-09-03 13:05:12.053,-3728633,-6822607,-6819695,-3733610,2,2,2,2
2025-09-03 13:05:12.055,-1631373,-2628228,-6819587,-7928065,2,2,2,2
2025-09-03 13:05:12.058,-1631504,-6822652,-2625414,-7928122,2,2,2,2
2025-09-03 13:05:12.061,-3728656,-6822647,-6819713,-3733869,2,2,2,2
2025-09-03 13:05:12.063,-1631382,-6822444,-6819587,-7927962,2,2,2,2
2025-09-03 13:05:12.066,-3728415,-6822404,-6819733,-7927927,2,2,2,2
2025-09-03 13:05:12.069,-1631330,-6822638,-6819712,-7927917,2,2,2,2
2025-09-03 13:05:12.071,-1631472,-2636415,-6819602,-7928058,2,2,2,2
2025-09-03 13:05:12.074,-1631429,-2628118,-6819556,-7927937,2,2,2,2
2025-09-03 13:05:12.077,-3728260,-6822199,-6819563,-3733385,2,2,2,2
2025-09-03 13:05:12.079,-1631124,-6822247,-2625277,-7927772,2,2,2,2
2025-09-03 13:05:12.082,-1631191,-2627937,-6819580,-7927697,2,2,2,2
2025-09-03 13:05:12.084,-1631225,-6822200,-6819349,-7927782,2,2,2,2
2025-09-03 13:05:12.087,-1631204,-6822250,-6819334,-7927702,2,2,2,2
2025-09-03 13:05:12.090,-1631105,-6822394,-6819480,-7927665,2,2,2,2
2025-09-03 13:05:12.093,-1631229,-6822257,-2625056,-7927783,2,2,2,2
2025-09-03 13:05:12.095,-3728371,-6822188,-6819343,-7927698,2,2,2,2
2025-09-03 13:05:12.098,-1631222,-6822246,-2625052,-7927755,2,2,2,2
2025-09-03 13:05:12.101,-1631203,-6822164,-4722184,-7927679,2,2,2,2
2025-09-03 13:05:12.103,-1623010,-6822153,-4722183,-7927603,2,2,2,2
2025-09-03 13:05:12.106,-1630948,-6821907,-2624774,-7927355,2,2,2,2
2025-09-03 13:05:12.109,-1630985,-2627704,-6819116,-7927448,2,2,2,2
2025-09-03 13:05:12.112,-1631103,-6822091,-6819221,-3733251,2,2,2,2
2025-09-03 13:05:12.115,-1631080,-6822025,-6819192,-3733150,2,2,2,2
2025-09-03 13:05:12.118,-1630955,-6821899,-6819322,-7927324,2,2,2,2
2025-09-03 13:05:12.120,-1630873,-2627835,-6819308,-7927307,2,2,2,2
2025-09-03 13:05:12.123,-1631089,-6822016,-2624895,-7927502,2,2,2,2
2025-09-03 13:05:12.126,-1631153,-6822128,-2624997,-7927540,2,2,2,2
2025-09-03 13:05:12.128,-1631200,-6822136,-6819321,-7927551,2,2,2,2
2025-09-03 13:05:12.131,-1631119,-6822116,-4722148,-7927484,2,2,2,2
2025-09-03 13:05:12.134,-1631114,-2635924,-6819286,-7927449,2,2,2,2
2025-09-03 13:05:12.136,-1630992,-6822160,-6819352,-7927577,2,2,2,2
2025-09-03 13:05:12.139,-1631192,-6822121,-6819297,-7927522,2,2,2,2
2025-09-03 13:05:12.142,-1623032,-6822140,-4722178,-7927546,2,2,2,2
2025-09-03 13:05:12.144,-1622900,-6822190,-2625142,-7927592,2,2,2,2
2025-09-03 13:05:12.148,-3728357,-6822090,-6819218,-7927431,2,2,2,2
2025-09-03 13:05:12.150,-1630990,-2635785,-6819074,-7927543,2,2,2,2
2025-09-03 13:05:12.153,-3728028,-6822026,-6819212,-3733128,2,2,2,2
2025-09-03 13:05:12.156,-3728116,-6822065,-6819300,-3733132,2,2,2,2
2025-09-03 13:05:12.159,-1630866,-6821939,-6819199,-7927367,2,2,2,2
2025-09-03 13:05:12.161,-1630745,-2627575,-6819084,-7927275,2,2,2,2
2025-09-03 13:05:12.164,-1630851,-6821735,-2624640,-7927074,2,2,2,2
2025-09-03 13:05:12.166,-1630965,-6821785,-6818976,-7927176,2,2,2,2
2025-09-03 13:05:12.170,-1630837,-6821646,-2624611,-7927290,2,2,2,2
2025-09-03 13:05:12.172,-3727977,-6821887,-6819169,-3732967,2,2,2,2
2025-09-03 13:05:12.175,-1630777,-6821866,-2624520,-7927241,2,2,2,2
2025-09-03 13:05:12.178,-1630689,-2627437,-6819014,-7927069,2,2,2,2
2025-09-03 13:05:12.181,-1630593,-6821631,-2624609,-7927018,2,2,2,2
2025-09-03 13:05:12.184,-1630586,-6821632,-4721688,-7926984,2,2,2,2
2025-09-03 13:05:12.187,-1630492,-2627300,-6818824,-7926927,2,2,2,2
2025-09-03 13:05:12.190,-1630671,-2627074,-6818603,-7927014,2,2,2,2
2025-09-03 13:05:12.193,-1630495,-6821591,-6818813,-7926901,2,2,2,2
2025-09-03 13:05:12.195,-1630468,-2635385,-6818780,-3732493,2,2,2,2
2025-09-03 13:05:12.198,-1630580,-6821610,-2624267,-7926904,2,2,2,2
2025-09-03 13:05:12.201,-1630482,-6821429,-4721560,-7926792,2,2,2,2
2025-09-03 13:05:12.203,-1622425,-6821390,-4721522,-7926967,2,2,2,2
2025-09-03 13:05:12.206,-1630485,-2635394,-6818782,-7926799,2,2,2,2
2025-09-03 13:05:12.209,-1622295,-6821427,-4721562,-7926791,2,2,2,2
2025-09-03 13:05:12.212,-1630478,-6821488,-6818713,-7927031,2,2,2,2
2025-09-03 13:05:12.214,-1630713,-6821435,-6818697,-3732713,2,2,2,2
2025-09-03 13:05:12.217,-1622502,-6821632,-4721526,-7926914,2,2,2,2
2025-09-03 13:05:12.220,-1622278,-6821408,-4721553,-7927011,2,2,2,2
2025-09-03 13:05:12.222,-1630596,-6821535,-2624262,-7926806,2,2,2,2
2025-09-03 13:05:12.226,-1630539,-6821500,-2624490,-7926780,2,2,2,2
2025-09-03 13:05:12.228,-3727496,-6821307,-6818562,-3732243,2,2,2,2
2025-09-03 13:05:12.231,-1630268,-6821141,-2624138,-7926672,2,2,2,2
2025-09-03 13:05:12.234,-1630354,-6821326,-4721420,-7926534,2,2,2,2
2025-09-03 13:05:12.236,-1622144,-6821178,-4721399,-7926474,2,2,2,2
2025-09-03 13:05:12.239,-1630363,-6821179,-6818310,-7926513,2,2,2,2
2025-09-03 13:05:12.242,-1630322,-6821150,-2624158,-7926420,2,2,2,2
2025-09-03 13:05:12.244,-1630446,-6821337,-6818410,-7926543,2,2,2,2
2025-09-03 13:05:12.247,-1630360,-2635143,-6818314,-7926510,2,2,2,2
2025-09-03 13:05:12.249,-1630338,-2635116,-6818552,-7926672,2,2,2,2
2025-09-03 13:05:12.252,-1630347,-6821145,-2624247,-7926741,2,2,2,2
2025-09-03 13:05:12.255,-1630311,-6821116,-2624139,-7926314,2,2,2,2
2025-09-03 13:05:12.258,-1630447,-4724101,-6818323,-7926518,2,2,2,2
2025-09-03 13:05:12.261,-1630260,-4723976,-6818493,-7926403,2,2,2,2
2025-09-03 13:05:12.264,-1630318,-6821106,-6818448,-7926370,2,2,2,2
2025-09-03 13:05:12.267,-1613822,-2634877,-6818327,-7926505,2,2,2,2
2025-09-03 13:05:12.269,-1613817,-2626688,-6818317,-7926509,2,2,2,2
2025-09-03 13:05:12.272,-1630221,-6821006,-2624112,-7926514,2,2,2,2
2025-09-03 13:05:12.275,-1622035,-6821070,-2624116,-7926514,2,2,2,2
2025-09-03 13:05:12.278,-1613823,-6820973,-6818322,-3732118,2,2,2,2
2025-09-03 13:05:12.280,-1630232,-6820999,-6818335,-3732126,2,2,2,2
2025-09-03 13:05:12.283,-1630098,-6820869,-2623976,-7926306,2,2,2,2
2025-09-03 13:05:12.286,-1613814,-2626662,-6818061,-7926161,2,2,2,2
2025-09-03 13:05:12.289,-3710738,-6820982,-6818149,-3731859,2,2,2,2
2025-09-03 13:05:12.292,-1613704,-2634980,-6818242,-3731949,2,2,2,2
2025-09-03 13:05:12.294,-1613606,-6820988,-6818113,-7926165,2,2,2,2
2025-09-03 13:05:12.297,-1630199,-6820883,-6818302,-7926113,2,2,2,2
2025-09-03 13:05:12.300,-1613728,-2634738,-6818273,-7926267,2,2,2,2
2025-09-03 13:05:12.302,-1621890,-6820821,-4721029,-7926247,2,2,2,2
2025-09-03 13:05:12.305,-1630006,-6820714,-2623768,-7926135,2,2,2,2
2025-09-03 13:05:12.308,-1613604,-6820719,-6818107,-7926130,2,2,2,2
2025-09-03 13:05:12.310,-1613610,-4723567,-6818118,-7926132,2,2,2,2
2025-09-03 13:05:12.313,-1613789,-2626461,-6818257,-7926166,2,2,2,2
2025-09-03 13:05:12.316,-1613717,-6820826,-6818196,-7926169,2,2,2,2
2025-09-03 13:05:12.319,-1613718,-2626445,-6818248,-7926160,2,2,2,2
2025-09-03 13:05:12.322,-1613687,-2626401,-6818092,-7926129,2,2,2,2
2025-09-03 13:05:12.324,-1613451,-2634620,-6817853,-7925894,2,2,2,2
2025-09-03 13:05:12.327,-1613566,-6820833,-6818027,-7925919,2,2,2,2
2025-09-03 13:05:12.330,-1629751,-6820632,-6817890,-7925787,2,2,2,2
2025-09-03 13:05:12.333,-1613409,-2634496,-6817807,-7925767,2,2,2,2
2025-09-03 13:05:12.335,-1629840,-6820717,-2623607,-7925809,2,2,2,2
2025-09-03 13:05:12.338,-1630019,-6820609,-2623760,-7926010,2,2,2,2
2025-09-03 13:05:12.341,-1613696,-6820627,-6818148,-3731719,2,2,2,2
2025-09-03 13:05:12.344,-1613591,-4723681,-6818037,-7925986,2,2,2,2
2025-09-03 13:05:12.346,-1621619,-6820600,-4720658,-7925999,2,2,2,2
2025-09-03 13:05:12.349,-1613317,-6820546,-6818022,-7925886,2,2,2,2
2025-09-03 13:05:12.352,-1613552,-2626146,-6817995,-7925792,2,2,2,2
2025-09-03 13:05:12.355,-3710568,-6820541,-6817791,-3731345,2,2,2,2
2025-09-03 13:05:12.357,-1629673,-6820449,-2623354,-7925512,2,2,2,2
2025-09-03 13:05:12.360,-1613198,-6820354,-6817639,-7925731,2,2,2,2
2025-09-03 13:05:12.363,-1621398,-6820363,-4720496,-7925751,2,2,2,2
2025-09-03 13:05:12.366,-1613337,-2634372,-6817769,-7925602,2,2,2,2
2025-09-03 13:05:12.368,-1613344,-6820496,-6817777,-3731310,2,2,2,2
2025-09-03 13:05:12.371,-1613286,-6820367,-6817667,-7925750,2,2,2,2
2025-09-03 13:05:12.374,-1613330,-6820401,-4720613,-7925559,2,2,2,2
2025-09-03 13:05:12.376,-1613284,-2634245,-6817732,-7925733,2,2,2,2
2025-09-03 13:05:12.379,-1621475,-6820347,-4720488,-7925715,2,2,2,2
2025-09-03 13:05:12.382,-1629544,-6820218,-2623462,-7925525,2,2,2,2
2025-09-03 13:05:12.385,-1613191,-6820244,-6817541,-3723119,2,2,2,2
2025-09-03 13:05:12.387,-1613075,-4722965,-6817678,-7925483,2,2,2,2
2025-09-03 13:05:12.390,-1613255,-2625934,-6817547,-7925601,2,2,2,2
2025-09-03 13:05:12.393,-1613207,-2625940,-6817577,-7925359,2,2,2,2
2025-09-03 13:05:12.396,-1629429,-6820085,-2623096,-7925301,2,2,2,2
2025-09-03 13:05:12.398,-1629437,-6820095,-2623108,-7925047,2,2,2,2
2025-09-03 13:05:12.401,-3710187,-6820071,-6817382,-7925279,2,2,2,2
2025-09-03 13:05:12.404,-1613077,-6820102,-6817428,-7925380,2,2,2,2
2025-09-03 13:05:12.406,-1629578,-6820219,-2623240,-7925252,2,2,2,2
2025-09-03 13:05:12.409,-1629582,-6820220,-2623245,-7925491,2,2,2,2
2025-09-03 13:05:12.411,-1613082,-6820091,-6817424,-7925376,2,2,2,2
2025-09-03 13:05:12.414,-3710058,-6819859,-6817506,-7925132,2,2,2,2
2025-09-03 13:05:12.417,-1613081,-2633969,-6817483,-7925352,2,2,2,2
2025-09-03 13:05:12.419,-1613161,-2633996,-6817512,-7925384,2,2,2,2
2025-09-03 13:05:12.422,-1629430,-6819974,-2623000,-7925240,2,2,2,2
2025-09-03 13:05:12.425,-1629313,-6819868,-2623209,-7925192,2,2,2,2
2025-09-03 13:05:12.428,-1612926,-2625547,-6817507,-7925111,2,2,2,2
2025-09-03 13:05:12.431,-1613044,-4722820,-6817310,-7925219,2,2,2,2
2025-09-03 13:05:12.434,-1612905,-6820077,-6817417,-7925005,2,2,2,2
2025-09-03 13:05:12.437,-1612818,-2633885,-6817341,-7925247,2,2,2,2
2025-09-03 13:05:12.439,-1629362,-6819859,-2623230,-7925050,2,2,2,2
2025-09-03 13:05:12.442,-1629191,-6819982,-2623092,-7925228,2,2,2,2
2025-09-03 13:05:12.446,-1612827,-2625684,-6817342,-7925235,2,2,2,2
2025-09-03 13:05:12.448,-3710198,-6819960,-6817310,-3730829,2,2,2,2
2025-09-03 13:05:12.451,-1612923,-2625517,-6817246,-7925002,2,2,2,2
2025-09-03 13:05:12.453,-3710069,-6819819,-6817249,-7924998,2,2,2,2
2025-09-03 13:05:12.456,-1629156,-6819601,-2622730,-7924775,2,2,2,2
2025-09-03 13:05:12.459,-3709944,-6819655,-6817053,-3722366,2,2,2,2
2025-09-03 13:05:12.462,-1612663,-6819828,-6817256,-7924992,2,2,2,2
2025-09-03 13:05:12.464,-1612772,-6819604,-6817028,-7924766,2,2,2,2
2025-09-03 13:05:12.467,-1612683,-6819832,-6817276,-7924741,2,2,2,2
2025-09-03 13:05:12.470,-1629058,-6819809,-2622956,-7924965,2,2,2,2
2025-09-03 13:05:12.473,-1612673,-6819823,-6817251,-3722472,2,2,2,2
2025-09-03 13:05:12.475,-1629077,-6819827,-2622959,-7924982,2,2,2,2
2025-09-03 13:05:12.478,-1628955,-6819440,-2622579,-7924523,2,2,2,2
2025-09-03 13:05:12.481,-1628932,-6819346,-2622561,-7924503,2,2,2,2
2025-09-03 13:05:12.483,-3709678,-6819331,-6816774,-3730182,2,2,2,2
2025-09-03 13:05:12.486,-1612445,-2625182,-6817004,-7924707,2,2,2,2
2025-09-03 13:05:12.489,-1612525,-2625026,-6816781,-7924734,2,2,2,2
2025-09-03 13:05:12.492,-1629053,-6819465,-2622611,-7924541,2,2,2,2
2025-09-03 13:05:12.494,-3709811,-6819442,-6816892,-3722091,2,2,2,2
2025-09-03 13:05:12.497,-1628775,-6819359,-2622578,-7924503,2,2,2,2
2025-09-03 13:05:12.500,-1612433,-2625156,-6816989,-7924607,2,2,2,2
2025-09-03 13:05:12.502,-1628686,-6819329,-2622494,-7924464,2,2,2,2
2025-09-03 13:05:12.505,-1612325,-2625044,-6816814,-7924487,2,2,2,2
2025-09-03 13:05:12.507,-1612422,-6819373,-6816910,-7924509,2,2,2,2
2025-09-03 13:05:12.510,-1612528,-2624919,-6816760,-7924356,2,2,2,2
2025-09-03 13:05:12.513,-3709549,-6819082,-6816616,-3730168,2,2,2,2
2025-09-03 13:05:12.515,-1612521,-2624898,-6816746,-7924344,2,2,2,2
2025-09-03 13:05:12.518,-1628786,-6819073,-2622320,-7924469,2,2,2,2
2025-09-03 13:05:12.521,-1612297,-2624909,-6816762,-7924356,2,2,2,2
2025-09-03 13:05:12.523,-1612394,-2625016,-6816542,-7924449,2,2,2,2
2025-09-03 13:05:12.526,-3709428,-6819206,-6816669,-3730025,2,2,2,2
2025-09-03 13:05:12.529,-3709436,-6819012,-6816492,-7924069,2,2,2,2
2025-09-03 13:05:12.532,-1628568,-6819095,-2622328,-7924223,2,2,2,2
2025-09-03 13:05:12.535,-1612236,-4721918,-6816584,-7924201,2,2,2,2
2025-09-03 13:05:12.537,-1620470,-6818860,-4719258,-7923999,2,2,2,2
2025-09-03 13:05:12.540,-1628423,-6818940,-2622184,-7923995,2,2,2,2
2025-09-03 13:05:12.543,-1628556,-6819068,-2622051,-7924185,2,2,2,2
2025-09-03 13:05:12.546,-1628523,-6818956,-2622207,-7924008,2,2,2,2
2025-09-03 13:05:12.548,-3709193,-6818896,-6816410,-3721480,2,2,2,2
2025-09-03 13:05:12.551,-1611876,-2624391,-6816246,-7923811,2,2,2,2
2025-09-03 13:05:12.554,-1611875,-6818760,-6816247,-7923818,2,2,2,2
2025-09-03 13:05:12.556,-1620083,-6818759,-4719101,-7923776,2,2,2,2
2025-09-03 13:05:12.559,-1628169,-6818589,-2621848,-7923957,2,2,2,2
2025-09-03 13:05:12.562,-1611913,-6818775,-4719128,-7923786,2,2,2,2
2025-09-03 13:05:12.565,-1611796,-6818670,-6816200,-7923953,2,2,2,2
2025-09-03 13:05:12.567,-1612031,-4721678,-6816385,-7923856,2,2,2,2
2025-09-03 13:05:12.570,-1612002,-2624495,-6816310,-3729543,2,2,2,2
2025-09-03 13:05:12.573,-1620112,-6818773,-2622050,-7923757,2,2,2,2
2025-09-03 13:05:12.576,-1628291,-6818753,-2621962,-7923723,2,2,2,2
2025-09-03 13:05:12.578,-1611834,-2624383,-6816254,-7923967,2,2,2,2
2025-09-03 13:05:12.581,-1612018,-4721638,-6816333,-7923820,2,2,2,2
2025-09-03 13:05:12.584,-3709198,-6818818,-6816393,-3729534,2,2,2,2
2025-09-03 13:05:12.587,-1611997,-6818692,-6816023,-7923716,2,2,2,2
2025-09-03 13:05:12.590,-1611910,-6818604,-6816250,-7923650,2,2,2,2
2025-09-03 13:05:12.592,-1611782,-2624154,-6816057,-7923485,2,2,2,2
2025-09-03 13:05:12.595,-1628028,-6818317,-2621671,-7923661,2,2,2,2
2025-09-03 13:05:12.597,-1627938,-6818555,-6815881,-7923567,2,2,2,2
2025-09-03 13:05:12.600,-1611750,-6818366,-6815764,-7923401,2,2,2,2
2025-09-03 13:05:12.603,-1611633,-2624002,-6815962,-3729264,2,2,2,2
2025-09-03 13:05:12.606,-1619858,-6818335,-2621697,-7923653,2,2,2,2
2025-09-03 13:05:12.608,-1628053,-6818405,-2621697,-7923649,2,2,2,2
2025-09-03 13:05:12.611,-1611781,-6818447,-6816119,-7923689,2,2,2,2
2025-09-03 13:05:12.614,-1619858,-6818322,-4718846,-7923505,2,2,2,2
2025-09-03 13:05:12.616,-1611774,-4721273,-6815780,-7923425,2,2,2,2
2025-09-03 13:05:12.620,-1611775,-2624128,-6815779,-7923351,2,2,2,2
2025-09-03 13:05:12.622,-1611543,-6818515,-4718715,-7923395,2,2,2,2
2025-09-03 13:05:12.625,-3708698,-6818509,-6815872,-7923433,2,2,2,2
2025-09-03 13:05:12.628,-1627954,-6818273,-6815887,-7923447,2,2,2,2
2025-09-03 13:05:12.631,-1619725,-6818246,-4718712,-7923384,2,2,2,2
2025-09-03 13:05:12.633,-1611746,-6818322,-6815745,-7923266,2,2,2,2
2025-09-03 13:05:12.636,-1619838,-6818277,-4718743,-7923449,2,2,2,2
2025-09-03 13:05:12.639,-1628043,-6818286,-2621677,-7923205,2,2,2,2
2025-09-03 13:05:12.642,-1628031,-6818198,-2621585,-7923432,2,2,2,2
2025-09-03 13:05:12.644,-1628026,-6818190,-2621591,-7923424,2,2,2,2
2025-09-03 13:05:12.647,-1627895,-6818054,-6815754,-7923223,2,2,2,2
2025-09-03 13:05:12.650,-1628113,-6818278,-6815981,-7923445,2,2,2,2
2025-09-03 13:05:12.653,-1611494,-4720904,-6815750,-7923206,2,2,2,2
2025-09-03 13:05:12.656,-1611510,-6818056,-6815751,-7923216,2,2,2,2
2025-09-03 13:05:12.659,-1619699,-6818050,-2621446,-7923196,2,2,2,2
2025-09-03 13:05:12.662,-1611532,-2623762,-6815774,-7923221,2,2,2,2
2025-09-03 13:05:12.664,-1627973,-6818158,-2621554,-7923236,2,2,2,2
2025-09-03 13:05:12.667,-1611505,-4721150,-6815737,-7923180,2,2,2,2
2025-09-03 13:05:12.669,-1611579,-4721015,-6815940,-7923303,2,2,2,2
2025-09-03 13:05:12.672,-1611661,-2623893,-6815957,-7923320,2,2,2,2
2025-09-03 13:05:12.675,-1611375,-6818095,-6815604,-7922997,2,2,2,2
2025-09-03 13:05:12.678,-1611518,-2623735,-6815740,-7923102,2,2,2,2
2025-09-03 13:05:12.681,-1611513,-2623733,-6815491,-7923171,2,2,2,2
2025-09-03 13:05:12.684,-1611409,-2623604,-6815694,-3728745,2,2,2,2
2025-09-03 13:05:12.686,-1611364,-6817813,-6815586,-3720445,2,2,2,2
2025-09-03 13:05:12.689,-1611276,-6818041,-4718345,-7922882,2,2,2,2
2025-09-03 13:05:12.692,-1619696,-6817997,-4718570,-7923064,2,2,2,2
2025-09-03 13:05:12.694,-1627650,-6817946,-2621437,-7923143,2,2,2,2
2025-09-03 13:05:12.697,-1611289,-2623722,-6815505,-7923098,2,2,2,2
2025-09-03 13:05:12.700,-1611294,-6818035,-6815515,-3720343,2,2,2,2
2025-09-03 13:05:12.703,-1627673,-6818032,-2621199,-7922888,2,2,2,2
2025-09-03 13:05:12.705,-3708188,-6817775,-6815250,-7922837,2,2,2,2
2025-09-03 13:05:12.708,-1627639,-6817657,-6815469,-7922792,2,2,2,2
2025-09-03 13:05:12.711,-1627454,-6817773,-2620944,-7922633,2,2,2,2
2025-09-03 13:05:12.713,-1627535,-6817552,-2621055,-7922673,2,2,2,2
2025-09-03 13:05:12.716,-3708395,-6817588,-6815459,-3728403,2,2,2,2
2025-09-03 13:05:12.719,-3708057,-6817559,-6815117,-7922681,2,2,2,2
2025-09-03 13:05:12.722,-1610885,-2623235,-6815029,-7922591,2,2,2,2
2025-09-03 13:05:12.724,-1627260,-6817528,-2620781,-7922644,2,2,2,2
2025-09-03 13:05:12.727,-1627362,-6817309,-6815202,-7922424,2,2,2,2
2025-09-03 13:05:12.730,-1618963,-6817493,-4717825,-7922474,2,2,2,2
2025-09-03 13:05:12.733,-1610971,-6817556,-6815120,-7922663,2,2,2,2
2025-09-03 13:05:12.736,-1610999,-4720241,-6815211,-7922446,2,2,2,2
2025-09-03 13:05:12.738,-1627378,-6817311,-2620902,-7922432,2,2,2,2
2025-09-03 13:05:12.741,-1610858,-6817465,-6815008,-3720040,2,2,2,2
2025-09-03 13:05:12.744,-1610753,-6817312,-6815214,-7922427,2,2,2,2
2025-09-03 13:05:12.747,-1610978,-2622990,-6815175,-7922336,2,2,2,2
2025-09-03 13:05:12.750,-1619084,-6817527,-4717947,-7922377,2,2,2,2
2025-09-03 13:05:12.753,-1610766,-2623090,-6814983,-7922188,2,2,2,2
2025-09-03 13:05:12.756,-1610872,-2623128,-6815027,-7922288,2,2,2,2
2025-09-03 13:05:12.758,-1610749,-2622988,-6814943,-3728097,2,2,2,2
2025-09-03 13:05:12.761,-3707662,-6817055,-6814967,-7922155,2,2,2,2
2025-09-03 13:05:12.764,-1610503,-2622750,-6814953,-7922150,2,2,2,2
2025-09-03 13:05:12.766,-1627106,-6817271,-2620556,-7922297,2,2,2,2
2025-09-03 13:05:12.769,-1610640,-2622874,-6814778,-7922276,2,2,2,2
2025-09-03 13:05:12.772,-1626994,-6817144,-2620443,-7922177,2,2,2,2
2025-09-03 13:05:12.775,-1627021,-6817174,-2620540,-7922206,2,2,2,2
2025-09-03 13:05:12.778,-1610647,-6817175,-6814845,-3719525,2,2,2,2
2025-09-03 13:05:12.780,-1610525,-2622818,-6814730,-7922072,2,2,2,2
2025-09-03 13:05:12.784,-1610495,-6817026,-4717550,-7922060,2,2,2,2
2025-09-03 13:05:12.786,-1610626,-2622846,-6814764,-7922169,2,2,2,2
2025-09-03 13:05:12.789,-1627086,-6817176,-2620549,-7921936,2,2,2,2
2025-09-03 13:05:12.791,-3707783,-6817101,-6814824,-3727848,2,2,2,2
2025-09-03 13:05:12.794,-1610499,-2622624,-6814694,-7922026,2,2,2,2
2025-09-03 13:05:12.796,-1626812,-6816899,-2620283,-7921912,2,2,2,2
2025-09-03 13:05:12.799,-1610502,-2622717,-6814704,-7922025,2,2,2,2
2025-09-03 13:05:12.802,-1610371,-2622573,-6814500,-7921820,2,2,2,2
2025-09-03 13:05:12.804,-1610348,-2622481,-6814478,-7921793,2,2,2,2
2025-09-03 13:05:12.807,-1626689,-6816778,-2620161,-7921781,2,2,2,2
2025-09-03 13:05:12.810,-1626762,-6816799,-2620190,-7921863,2,2,2,2
2025-09-03 13:05:12.813,-1610493,-6816913,-6814607,-3719414,2,2,2,2
2025-09-03 13:05:12.816,-1618560,-6816778,-2620170,-7921717,2,2,2,2
2025-09-03 13:05:12.818,-1610455,-4719718,-6814530,-7921806,2,2,2,2
2025-09-03 13:05:12.821,-1610450,-6816883,-6814574,-7921814,2,2,2,2
2025-09-03 13:05:12.823,-1610263,-4719851,-6814696,-7921673,2,2,2,2
2025-09-03 13:05:12.826,-1618434,-6816973,-2620297,-7921898,2,2,2,2
2025-09-03 13:05:12.829,-1610383,-6816777,-6814487,-3719287,2,2,2,2
2025-09-03 13:05:12.831,-1610347,-6816753,-6814462,-3719195,2,2,2,2
2025-09-03 13:05:12.834,-1610242,-4719489,-6814339,-7905182,2,2,2,2
2025-09-03 13:05:12.837,-1626736,-6816661,-2620137,-7905277,2,2,2,2
2025-09-03 13:05:12.840,-1626651,-6816640,-2620045,-7905249,2,2,2,2
2025-09-03 13:05:12.842,-1626695,-6816655,-2620131,-7905251,2,2,2,2
2025-09-03 13:05:12.845,-1610135,-6816519,-6814231,-3718938,2,2,2,2
2025-09-03 13:05:12.848,-1610001,-2622325,-6814401,-7905161,2,2,2,2
2025-09-03 13:05:12.851,-1610252,-2622306,-6814266,-7905135,2,2,2,2
2025-09-03 13:05:12.853,-1626556,-6816756,-2619912,-7905034,2,2,2,2
2025-09-03 13:05:12.856,-1626436,-6816639,-2620053,-7905237,2,2,2,2
2025-09-03 13:05:12.859,-1610135,-6816481,-6814199,-7921360,2,2,2,2
2025-09-03 13:05:12.861,-1609954,-2622192,-6814207,-7905023,2,2,2,2
2025-09-03 13:05:12.864,-1609974,-2621953,-6813970,-7904786,2,2,2,2
2025-09-03 13:05:12.867,-1626408,-6816361,-6814088,-7904876,2,2,2,2
2025-09-03 13:05:12.870,-1610120,-6816390,-6814184,-3710598,2,2,2,2
2025-09-03 13:05:12.872,-1610009,-6816263,-6814030,-7904787,2,2,2,2
2025-09-03 13:05:12.875,-1609990,-4719359,-6813993,-7905020,2,2,2,2
2025-09-03 13:05:12.878,-1609955,-2622098,-6813955,-7904925,2,2,2,2
2025-09-03 13:05:12.881,-1609962,-6816467,-6814208,-7921298,2,2,2,2
2025-09-03 13:05:12.883,-1610005,-6816512,-6814054,-7921388,2,2,2,2
2025-09-03 13:05:12.886,-1610013,-6816259,-6813984,-7921391,2,2,2,2
2025-09-03 13:05:12.889,-3707143,-6816504,-6813980,-7921378,2,2,2,2
2025-09-03 13:05:12.891,-1609976,-6816467,-4717046,-7921283,2,2,2,2
2025-09-03 13:05:12.894,-1626298,-6816115,-2619551,-7904536,2,2,2,2
2025-09-03 13:05:12.896,-1609736,-2621851,-6813965,-7904641,2,2,2,2
2025-09-03 13:05:12.899,-1609937,-4719212,-6814172,-7904784,2,2,2,2
2025-09-03 13:05:12.902,-1609869,-2621725,-6813900,-7904516,2,2,2,2
2025-09-03 13:05:12.905,-1609881,-2621727,-6813918,-7904521,2,2,2,2
2025-09-03 13:05:12.907,-3707032,-6816026,-6813851,-7921145,2,2,2,2
2025-09-03 13:05:12.910,-1609746,-6816215,-6813710,-7921007,2,2,2,2
2025-09-03 13:05:12.913,-1618042,-6816249,-4716654,-7921081,2,2,2,2
2025-09-03 13:05:12.916,-1609703,-4718947,-6813899,-7904528,2,2,2,2
2025-09-03 13:05:12.919,-1609729,-4718968,-6813941,-7904542,2,2,2,2
2025-09-03 13:05:12.922,-1609725,-2621804,-6813930,-7904520,2,2,2,2
2025-09-03 13:05:12.924,-1626083,-6816004,-2619530,-7904493,2,2,2,2
2025-09-03 13:05:12.927,-1626082,-6815995,-2619530,-7904406,2,2,2,2
2025-09-03 13:05:12.930,-1609616,-2621674,-6813635,-7904388,2,2,2,2
2025-09-03 13:05:12.933,-1609506,-6815878,-6813538,-7904285,2,2,2,2
2025-09-03 13:05:12.935,-1609497,-2621572,-6813468,-3709981,2,2,2,2
2025-09-03 13:05:12.938,-1609501,-6815802,-2619156,-7920651,2,2,2,2
2025-09-03 13:05:12.941,-1609479,-6815774,-6813685,-7904239,2,2,2,2
2025-09-03 13:05:12.943,-1625900,-6815865,-6813463,-7904271,2,2,2,2
2025-09-03 13:05:12.946,-1609465,-2686973,-6813669,-7904155,2,2,2,2
2025-09-03 13:05:12.948,-1625868,-6815765,-2619379,-7904228,2,2,2,2
2025-09-03 13:05:12.951,-1609672,-6815888,-6813557,-7904288,2,2,2,2
2025-09-03 13:05:12.954,-1609705,-6815990,-6813622,-7904374,2,2,2,2
2025-09-03 13:05:12.956,-1609687,-4718747,-6813572,-7904286,2,2,2,2
2025-09-03 13:05:12.959,-1625837,-6881261,-2619289,-7904045,2,2,2,2
2025-09-03 13:05:12.962,-1609471,-6815747,-6813679,-7920519,2,2,2,2
2025-09-03 13:05:12.965,-1609464,-2686949,-6813658,-7904115,2,2,2,2
2025-09-03 13:05:12.968,-1625788,-6881168,-2619256,-7904015,2,2,2,2
2025-09-03 13:05:12.971,-1609326,-6881050,-6813455,-7920581,2,2,2,2
2025-09-03 13:05:12.974,-1609271,-6881054,-6813452,-7904160,2,2,2,2
2025-09-03 13:05:12.976,-1609319,-6881033,-4716288,-7920510,2,2,2,2
2025-09-03 13:05:12.979,-1609457,-2686860,-6813248,-7903995,2,2,2,2
2025-09-03 13:05:12.981,-1609363,-6881069,-2618984,-7920358,2,2,2,2
2025-09-03 13:05:12.984,-1609457,-2686851,-6813243,-3709694,2,2,2,2
2025-09-03 13:05:12.987,-1609455,-6881221,-4716158,-7920383,2,2,2,2
2025-09-03 13:05:12.989,-1625604,-6881174,-6813330,-7904016,2,2,2,2
2025-09-03 13:05:12.992,-1609332,-6881020,-6813189,-7920251,2,2,2,2
2025-09-03 13:05:12.994,-1609192,-6880817,-4715883,-7920097,2,2,2,2
2025-09-03 13:05:12.997,-1625480,-6880774,-2618903,-7903805,2,2,2,2
2025-09-03 13:05:13.000,-1609189,-6880868,-6813262,-7903884,2,2,2,2
2025-09-03 13:05:13.002,-1609083,-6881012,-4716034,-7920189,2,2,2,2
2025-09-03 13:05:13.005,-1609215,-2686586,-6813247,-7903971,2,2,2,2
2025-09-03 13:05:13.007,-1609208,-6880875,-6813306,-7903895,2,2,2,2
2025-09-03 13:05:13.010,-3706238,-6880991,-6813175,-7920147,2,2,2,2
2025-09-03 13:05:13.013,-1609204,-6880801,-6813040,-7920016,2,2,2,2
2025-09-03 13:05:13.015,-1625541,-6880797,-2618727,-7903550,2,2,2,2
2025-09-03 13:05:13.018,-1625546,-6880800,-2618983,-7903937,2,2,2,2
2025-09-03 13:05:13.021,-1625585,-6880789,-2618987,-7903795,2,2,2,2
2025-09-03 13:05:13.024,-1609097,-6880993,-6813173,-3717636,2,2,2,2
2025-09-03 13:05:13.027,-1609108,-6880740,-6813176,-3717385,2,2,2,2
2025-09-03 13:05:13.030,-3706099,-6880526,-6813032,-7919976,2,2,2,2
2025-09-03 13:05:13.033,-1608848,-6880743,-6812938,-7919876,2,2,2,2
2025-09-03 13:05:13.035,-1608912,-6880671,-6812934,-7903494,2,2,2,2
2025-09-03 13:05:13.038,-1608960,-2686225,-6812992,-7903601,2,2,2,2
2025-09-03 13:05:13.040,-1625537,-6880749,-2618634,-7903495,2,2,2,2
2025-09-03 13:05:13.043,-1608967,-6880772,-6813030,-3717476,2,2,2,2
2025-09-03 13:05:13.046,-1608976,-6880777,-6812999,-7903514,2,2,2,2
2025-09-03 13:05:13.049,-1608935,-6880733,-4715778,-7919863,2,2,2,2
2025-09-03 13:05:13.051,-1608862,-2686354,-6812928,-7903392,2,2,2,2
2025-09-03 13:05:13.055,-1608930,-2686360,-6812930,-7903460,2,2,2,2
2025-09-03 13:05:13.057,-1625206,-6880621,-2618518,-7903283,2,2,2,2
2025-09-03 13:05:13.060,-1608708,-6880459,-6812700,-3717363,2,2,2,2
2025-09-03 13:05:13.062,-3705988,-6880548,-6812824,-7919717,2,2,2,2
2025-09-03 13:05:13.065,-1625124,-6880510,-6812791,-7903228,2,2,2,2
2025-09-03 13:05:13.068,-1608833,-6880280,-6812821,-7919645,2,2,2,2
2025-09-03 13:05:13.071,-1625330,-6880399,-2618374,-7903445,2,2,2,2
2025-09-03 13:05:13.073,-3706010,-6880301,-6812901,-3725431,2,2,2,2
2025-09-03 13:05:13.076,-1625102,-6880412,-2618399,-7903207,2,2,2,2
2025-09-03 13:05:13.079,-1625095,-6880400,-2618390,-7903196,2,2,2,2
2025-09-03 13:05:13.082,-1608469,-4783079,-6812491,-7903207,2,2,2,2
2025-09-03 13:05:13.085,-1608473,-4783074,-6812490,-7902879,2,2,2,2
2025-09-03 13:05:13.088,-1608584,-2685697,-6812623,-7902986,2,2,2,2
2025-09-03 13:05:13.090,-1608465,-2685840,-6812444,-7903116,2,2,2,2
2025-09-03 13:05:13.093,-1608575,-6880003,-6812560,-3716865,2,2,2,2
2025-09-03 13:05:13.095,-3705599,-6880045,-6812421,-7919210,2,2,2,2
2025-09-03 13:05:13.098,-1624892,-6880235,-6812553,-7902946,2,2,2,2
2025-09-03 13:05:13.101,-1608559,-2685850,-6812472,-7902872,2,2,2,2
2025-09-03 13:05:13.104,-1608584,-2685939,-6812629,-7902963,2,2,2,2
2025-09-03 13:05:13.106,-1624895,-6880134,-2618215,-7902843,2,2,2,2
2025-09-03 13:05:13.109,-1624786,-6879981,-2618006,-7902945,2,2,2,2
2025-09-03 13:05:13.112,-1624600,-6879861,-2617885,-7902753,2,2,2,2
2025-09-03 13:05:13.115,-1608318,-6879927,-6812279,-3716736,2,2,2,2
2025-09-03 13:05:13.118,-1608584,-6880151,-6812549,-3716742,2,2,2,2
2025-09-03 13:05:13.120,-1624682,-6879863,-2617888,-7902743,2,2,2,2
2025-09-03 13:05:13.123,-1608316,-6879948,-2617969,-7902771,2,2,2,2
2025-09-03 13:05:13.125,-1608397,-4782752,-6812293,-7902858,2,2,2,2
2025-09-03 13:05:13.128,-1608419,-6879973,-6812309,-7902609,2,2,2,2
2025-09-03 13:05:13.130,-1608433,-6879992,-2618013,-7919061,2,2,2,2
2025-09-03 13:05:13.133,-1608212,-2685451,-6812415,-7902713,2,2,2,2
2025-09-03 13:05:13.136,-1624600,-6879760,-2618110,-7902711,2,2,2,2
2025-09-03 13:05:13.139,-1624677,-6879772,-2617878,-7902720,2,2,2,2
2025-09-03 13:05:13.141,-1608396,-4782714,-6812213,-7902567,2,2,2,2
2025-09-03 13:05:13.144,-1608195,-6879725,-6812138,-3716502,2,2,2,2
2025-09-03 13:05:13.147,-1608225,-4782598,-6812157,-7902697,2,2,2,2
2025-09-03 13:05:13.150,-3705357,-6879717,-6812137,-7918987,2,2,2,2
2025-09-03 13:05:13.153,-1608053,-6879494,-6811920,-7918831,2,2,2,2
2025-09-03 13:05:13.155,-1624464,-6879510,-2617626,-7902462,2,2,2,2
2025-09-03 13:05:13.159,-1624507,-6879589,-2617705,-7902218,2,2,2,2
2025-09-03 13:05:13.160,-1624388,-6879468,-2617587,-7902417,2,2,2,2
2025-09-03 13:05:13.163,-1608048,-6879482,-6811895,-7918738,2,2,2,2
2025-09-03 13:05:13.166,-1624520,-6879593,-2617713,-7902219,2,2,2,2
2025-09-03 13:05:13.168,-1608083,-2685185,-6811918,-7902363,2,2,2,2
2025-09-03 13:05:13.171,-1608074,-6879488,-6811915,-7918744,2,2,2,2
2025-09-03 13:05:13.174,-3705219,-6879488,-6811917,-7918737,2,2,2,2
2025-09-03 13:05:13.176,-1607961,-2685309,-6812115,-7902224,2,2,2,2
2025-09-03 13:05:13.179,-1624441,-6879714,-2617844,-7902259,2,2,2,2
2025-09-03 13:05:13.181,-1608060,-2685165,-6811893,-7902319,2,2,2,2
2025-09-03 13:05:13.184,-3705244,-6879487,-6811919,-7918732,2,2,2,2
2025-09-03 13:05:13.187,-1607949,-6879292,-4714635,-7918590,2,2,2,2
2025-09-03 13:05:13.190,-1607831,-2684933,-6811660,-7902083,2,2,2,2
2025-09-03 13:05:13.192,-1607919,-6879263,-6811756,-7918484,2,2,2,2
2025-09-03 13:05:13.195,-1607815,-6879201,-4714486,-7918390,2,2,2,2
2025-09-03 13:05:13.198,-1607831,-6879227,-6811655,-7918411,2,2,2,2
2025-09-03 13:05:13.200,-1607790,-6879186,-2617245,-7901944,2,2,2,2
2025-09-03 13:05:13.203,-1607876,-6879376,-6811843,-7902204,2,2,2,2
2025-09-03 13:05:13.206,-1607920,-6879230,-6811699,-7902053,2,2,2,2
2025-09-03 13:05:13.208,-1607829,-6879163,-6811652,-3715850,2,2,2,2
2025-09-03 13:05:13.211,-1624130,-6879074,-2609033,-7901901,2,2,2,2
2025-09-03 13:05:13.214,-1607876,-4781963,-6811598,-7901931,2,2,2,2
2025-09-03 13:05:13.217,-1607737,-4781938,-6811604,-7901843,2,2,2,2
2025-09-03 13:05:13.220,-3704941,-6879025,-6811535,-3723925,2,2,2,2
2025-09-03 13:05:13.222,-1624116,-6879008,-2617216,-7901756,2,2,2,2
2025-09-03 13:05:13.225,-1623945,-6879114,-2609145,-7901927,2,2,2,2
2025-09-03 13:05:13.228,-1607551,-6878775,-6811294,-7917966,2,2,2,2
2025-09-03 13:05:13.230,-1607653,-6878925,-4714236,-7918026,2,2,2,2
2025-09-03 13:05:13.233,-1607661,-6878937,-6811402,-7918028,2,2,2,2
2025-09-03 13:05:13.236,-1623996,-6878852,-2617081,-7901594,2,2,2,2
2025-09-03 13:05:13.239,-1607583,-6878921,-2617080,-7901652,2,2,2,2
2025-09-03 13:05:13.242,-1623838,-6878721,-2616952,-7901444,2,2,2,2
2025-09-03 13:05:13.244,-1607418,-2684572,-6811165,-7901668,2,2,2,2
2025-09-03 13:05:13.247,-1607387,-4781689,-6811339,-7901568,2,2,2,2
2025-09-03 13:05:13.250,-1607434,-2684567,-6811159,-7901597,2,2,2,2
2025-09-03 13:05:13.253,-1607572,-6878761,-6811365,-7917901,2,2,2,2
2025-09-03 13:05:13.255,-1607674,-6878924,-4714246,-7917965,2,2,2,2
2025-09-03 13:05:13.258,-1623930,-6878733,-2608784,-7901449,2,2,2,2
2025-09-03 13:05:13.261,-1607432,-6878916,-6811160,-7917974,2,2,2,2
2025-09-03 13:05:13.263,-1607431,-6878855,-6811162,-7901586,2,2,2,2
2025-09-03 13:05:13.266,-1607452,-2684572,-6811172,-3707361,2,2,2,2
2025-09-03 13:05:13.269,-1607393,-2684436,-6811367,-7901541,2,2,2,2
2025-09-03 13:05:13.272,-1607308,-6878720,-2616984,-7901444,2,2,2,2
2025-09-03 13:05:13.274,-1607326,-6878479,-6811112,-3715092,2,2,2,2
2025-09-03 13:05:13.277,-1607216,-6878623,-6810991,-7901411,2,2,2,2
2025-09-03 13:05:13.280,-1607224,-4781472,-6810994,-7901342,2,2,2,2
2025-09-03 13:05:13.283,-1607206,-4781453,-6810922,-7901315,2,2,2,2
2025-09-03 13:05:13.286,-1607315,-2684396,-6811079,-7901341,2,2,2,2
2025-09-03 13:05:13.289,-1607149,-6878475,-4713961,-7917574,2,2,2,2
2025-09-03 13:05:13.291,-1607037,-2684061,-6810943,-7901085,2,2,2,2
2025-09-03 13:05:13.294,-1607060,-6878449,-4713612,-7917550,2,2,2,2
2025-09-03 13:05:13.297,-1607141,-6878464,-6810782,-7901173,2,2,2,2
2025-09-03 13:05:13.300,-1607024,-6878341,-6810988,-3706744,2,2,2,2
2025-09-03 13:05:13.302,-1623454,-6878447,-2608286,-7901157,2,2,2,2
2025-09-03 13:05:13.305,-1607024,-6878263,-2616419,-7900980,2,2,2,2
2025-09-03 13:05:13.307,-1623295,-6878221,-2616565,-7900934,2,2,2,2
2025-09-03 13:05:13.310,-1606869,-4780942,-6810756,-7900810,2,2,2,2
2025-09-03 13:05:13.313,-1606680,-6877971,-4713474,-7917068,2,2,2,2
2025-09-03 13:05:13.316,-1623194,-6878105,-2616197,-7900865,2,2,2,2
2025-09-03 13:05:13.318,-1606809,-2683801,-6810564,-7900809,2,2,2,2
2025-09-03 13:05:13.321,-1606816,-6878091,-6810757,-3706496,2,2,2,2
2025-09-03 13:05:13.324,-3703927,-6878026,-6810731,-3706466,2,2,2,2
2025-09-03 13:05:13.327,-1623287,-6878182,-6810857,-7900822,2,2,2,2
2025-09-03 13:05:13.330,-1606896,-6878186,-6810777,-7900812,2,2,2,2
2025-09-03 13:05:13.332,-1606782,-2683758,-6810658,-3706378,2,2,2,2
2025-09-03 13:05:13.335,-1606804,-2683777,-6810675,-7900699,2,2,2,2
2025-09-03 13:05:13.338,-1606892,-2683792,-6810578,-7900784,2,2,2,2
2025-09-03 13:05:13.341,-1606886,-6878091,-6810513,-3706481,2,2,2,2
2025-09-03 13:05:13.343,-1606859,-4780909,-6810438,-7900677,2,2,2,2
2025-09-03 13:05:13.346,-1606905,-4780947,-6810580,-7900780,2,2,2,2
2025-09-03 13:05:13.349,-1606779,-2683672,-6810654,-7900912,2,2,2,2
2025-09-03 13:05:13.352,-1606687,-2683902,-6810625,-7900813,2,2,2,2
2025-09-03 13:05:13.354,-1606681,-2683898,-6810613,-7900800,2,2,2,2
2025-09-03 13:05:13.357,-3703837,-6878195,-6810611,-3706489,2,2,2,2
2025-09-03 13:05:13.360,-1623119,-6877959,-2607881,-7900622,2,2,2,2
2025-09-03 13:05:13.363,-1606668,-6877922,-4713442,-7916843,2,2,2,2
2025-09-03 13:05:13.366,-1606783,-6877970,-2616088,-7900632,2,2,2,2
2025-09-03 13:05:13.369,-1623068,-6877930,-2608098,-7900464,2,2,2,2
2025-09-03 13:05:13.371,-1623026,-6877808,-2616183,-7900661,2,2,2,2
2025-09-03 13:05:13.374,-1606441,-4780701,-6810354,-7900522,2,2,2,2
2025-09-03 13:05:13.376,-3703656,-6877894,-6810353,-3722594,2,2,2,2
2025-09-03 13:05:13.379,-1622859,-6877928,-2616049,-7900448,2,2,2,2
2025-09-03 13:05:13.382,-1622882,-6877845,-2607846,-7900428,2,2,2,2
2025-09-03 13:05:13.384,-1623027,-6877800,-2607747,-7900386,2,2,2,2
2025-09-03 13:05:13.387,-1606606,-4780536,-6810165,-7900283,2,2,2,2
2025-09-03 13:05:13.390,-1606515,-2683364,-6810368,-7900191,2,2,2,2
2025-09-03 13:05:13.393,-1606435,-6877585,-6810338,-7900415,2,2,2,2
2025-09-03 13:05:13.396,-1606207,-6877674,-6810110,-7900185,2,2,2,2
2025-09-03 13:05:13.398,-1606197,-4780436,-6810062,-7900163,2,2,2,2
2025-09-03 13:05:13.401,-1606401,-2683250,-6810306,-7900314,2,2,2,2
2025-09-03 13:05:13.404,-1622648,-6877671,-2615804,-7900175,2,2,2,2
2025-09-03 13:05:13.407,-1622657,-6877672,-2615805,-7900176,2,2,2,2
2025-09-03 13:05:13.410,-1622658,-6877425,-2607362,-7899922,2,2,2,2
2025-09-03 13:05:13.412,-1606398,-6877510,-6809971,-3705720,2,2,2,2
2025-09-03 13:05:13.415,-1606150,-4780320,-6809989,-7900024,2,2,2,2
2025-09-03 13:05:13.418,-3703293,-6877254,-6809988,-3722119,2,2,2,2
2025-09-03 13:05:13.421,-1622642,-6877332,-2615795,-7900139,2,2,2,2
2025-09-03 13:05:13.423,-1606254,-2683019,-6810088,-7900133,2,2,2,2
2025-09-03 13:05:13.426,-1622711,-6877418,-2607371,-7899910,2,2,2,2
2025-09-03 13:05:13.428,-3703426,-6877328,-6810111,-3722225,2,2,2,2
2025-09-03 13:05:13.431,-3703416,-6877306,-6810083,-3722139,2,2,2,2
2025-09-03 13:05:13.434,-1622517,-6877190,-2615664,-7899936,2,2,2,2
2025-09-03 13:05:13.437,-1606264,-6877322,-6810105,-3705758,2,2,2,2
2025-09-03 13:05:13.440,-1605917,-6877248,-6809750,-3705464,2,2,2,2
2025-09-03 13:05:13.443,-1622458,-6877077,-2607123,-7899893,2,2,2,2
2025-09-03 13:05:13.446,-1606142,-2674688,-6809660,-7899662,2,2,2,2
2025-09-03 13:05:13.449,-1606023,-6877125,-4712449,-7916252,2,2,2,2
2025-09-03 13:05:13.451,-1605892,-6877183,-2615421,-7899667,2,2,2,2
2025-09-03 13:05:13.454,-1606002,-6876979,-4712699,-7916172,2,2,2,2
2025-09-03 13:05:13.456,-1605781,-6877143,-4712474,-7915977,2,2,2,2
2025-09-03 13:05:13.459,-1605858,-2674584,-6809632,-3705328,2,2,2,2
2025-09-03 13:05:13.462,-1605785,-6877137,-2615313,-7915997,2,2,2,2
2025-09-03 13:05:13.465,-1605857,-6877075,-6809653,-7899546,2,2,2,2
2025-09-03 13:05:13.467,-1605774,-6876988,-4712446,-7915909,2,2,2,2
2025-09-03 13:05:13.470,-1605785,-2674564,-6809603,-7899529,2,2,2,2
2025-09-03 13:05:13.472,-1605888,-6876901,-4712297,-7916003,2,2,2,2
2025-09-03 13:05:13.475,-1605861,-6876735,-6809362,-7915917,2,2,2,2
2025-09-03 13:05:13.477,-1605877,-6876873,-4712224,-7915920,2,2,2,2
2025-09-03 13:05:13.480,-1622264,-6876814,-2606877,-7899605,2,2,2,2
2025-09-03 13:05:13.483,-1605875,-2674316,-6809367,-7899524,2,2,2,2
2025-09-03 13:05:13.486,-1605629,-6876883,-4712223,-7915722,2,2,2,2
2025-09-03 13:05:13.489,-1605743,-6876923,-2615186,-7899389,2,2,2,2
2025-09-03 13:05:13.492,-1622078,-6876686,-2615196,-7899394,2,2,2,2
2025-09-03 13:05:13.495,-1589219,-6876772,-6809346,-7899164,2,2,2,2
2025-09-03 13:05:13.498,-1605656,-6876890,-4712319,-7915664,2,2,2,2
2025-09-03 13:05:13.500,-1605606,-4779552,-6809347,-7899161,2,2,2,2
2025-09-03 13:05:13.503,-1605512,-6876670,-4712170,-7915728,2,2,2,2
2025-09-03 13:05:13.505,-1605500,-6876666,-4712079,-7915723,2,2,2,2
2025-09-03 13:05:13.508,-1589196,-6876670,-6809322,-7899375,2,2,2,2
2025-09-03 13:05:13.511,-1605614,-6876448,-6809098,-3704844,2,2,2,2
2025-09-03 13:05:13.514,-1605569,-6876653,-6809265,-7899032,2,2,2,2
2025-09-03 13:05:13.516,-1605627,-6876487,-6809114,-3704849,2,2,2,2
2025-09-03 13:05:13.519,-1605519,-6876419,-4712179,-7915467,2,2,2,2
2025-09-03 13:05:13.522,-1605408,-6876560,-6809215,-3704694,2,2,2,2
2025-09-03 13:05:13.525,-1588993,-6876521,-2614804,-7898897,2,2,2,2
2025-09-03 13:05:13.528,-1605133,-2673777,-6808864,-7898897,2,2,2,2
2025-09-03 13:05:13.531,-1605322,-6876388,-6808987,-7899018,2,2,2,2
2025-09-03 13:05:13.534,-1605247,-6876314,-6808970,-3704694,2,2,2,2
2025-09-03 13:05:13.536,-1588840,-6876272,-2606453,-7898895,2,2,2,2
2025-09-03 13:05:13.539,-1605125,-4779012,-6808839,-7898856,2,2,2,2
2025-09-03 13:05:13.541,-1605359,-4779243,-6809078,-7898774,2,2,2,2
2025-09-03 13:05:13.544,-1604998,-2681732,-6808779,-7898656,2,2,2,2
2025-09-03 13:05:13.547,-1588585,-6876004,-2614390,-7898623,2,2,2,2
2025-09-03 13:05:13.550,-1604887,-6875954,-6808680,-3704297,2,2,2,2
2025-09-03 13:05:13.552,-1604972,-6875950,-6808706,-7915006,2,2,2,2
2025-09-03 13:05:13.555,-1605116,-6876148,-4711691,-7915148,2,2,2,2
2025-09-03 13:05:13.558,-1588741,-6876163,-2606436,-7898840,2,2,2,2
2025-09-03 13:05:13.561,-1588723,-6876063,-2606340,-7898672,2,2,2,2
2025-09-03 13:05:13.563,-1605123,-2681829,-6808843,-7898747,2,2,2,2
2025-09-03 13:05:13.566,-1605094,-6876099,-4711664,-7915019,2,2,2,2
2025-09-03 13:05:13.569,-1605103,-2673559,-6808830,-7898654,2,2,2,2
2025-09-03 13:05:13.572,-1605111,-2681744,-6808830,-7898649,2,2,2,2
2025-09-03 13:05:13.575,-1588504,-6876154,-2614303,-7898421,2,2,2,2
2025-09-03 13:05:13.577,-1605093,-6876034,-6808817,-3704318,2,2,2,2
2025-09-03 13:05:13.580,-1604982,-6875910,-2614394,-7914948,2,2,2,2
2025-09-03 13:05:13.583,-1604918,-2681592,-6808634,-7898482,2,2,2,2
2025-09-03 13:05:13.585,-1604880,-6876054,-6808589,-7898384,2,2,2,2
2025-09-03 13:05:13.587,-1604878,-6875783,-6808589,-3704078,2,2,2,2
2025-09-03 13:05:13.590,-1604749,-6875662,-4711310,-7914706,2,2,2,2
2025-09-03 13:05:13.593,-1604861,-4778614,-6808569,-7898355,2,2,2,2
2025-09-03 13:05:13.596,-1588501,-6875783,-2614287,-7898376,2,2,2,2
2025-09-03 13:05:13.598,-1588416,-6875664,-2605972,-7898322,2,2,2,2
2025-09-03 13:05:13.601,-1604840,-4778521,-6808519,-7898259,2,2,2,2
2025-09-03 13:05:13.604,-1604894,-4778630,-6808598,-7898371,2,2,2,2
2025-09-03 13:05:13.607,-1604850,-2681369,-6808544,-7898258,2,2,2,2
2025-09-03 13:05:13.609,-1588332,-6875795,-2605852,-7898118,2,2,2,2
2025-09-03 13:05:13.612,-1604833,-6875648,-6808458,-3703914,2,2,2,2
2025-09-03 13:05:13.614,-1604593,-6875407,-6808289,-7914370,2,2,2,2
2025-09-03 13:05:13.617,-1604843,-2681350,-6808542,-7898234,2,2,2,2
2025-09-03 13:05:13.620,-3701899,-6875580,-6808433,-3720216,2,2,2,2
2025-09-03 13:05:13.623,-1588295,-6875517,-2614048,-7898105,2,2,2,2
2025-09-03 13:05:13.625,-3701885,-6875595,-6808419,-7914483,2,2,2,2
2025-09-03 13:05:13.628,-1604595,-6875406,-4711141,-7914353,2,2,2,2
2025-09-03 13:05:13.631,-1604485,-2673051,-6808114,-7898104,2,2,2,2
2025-09-03 13:05:13.634,-1604591,-6875647,-4711064,-7914270,2,2,2,2
2025-09-03 13:05:13.637,-1588217,-6875411,-2613996,-7897892,2,2,2,2
2025-09-03 13:05:13.639,-1604407,-6875525,-6808139,-7898086,2,2,2,2
2025-09-03 13:05:13.642,-1604455,-6875443,-2613859,-7898072,2,2,2,2
2025-09-03 13:05:13.645,-1604382,-2681200,-6808090,-7898004,2,2,2,2
2025-09-03 13:05:13.647,-1604580,-6875344,-6808291,-3703559,2,2,2,2
2025-09-03 13:05:13.650,-1604455,-6875495,-6808090,-3703691,2,2,2,2
2025-09-03 13:05:13.653,-3701607,-6875468,-6808161,-3720068,2,2,2,2
2025-09-03 13:05:13.656,-1588167,-6875376,-2613917,-7897854,2,2,2,2
2025-09-03 13:05:13.658,-1604336,-2681079,-6808036,-7897610,2,2,2,2
2025-09-03 13:05:13.661,-1587835,-6875274,-2605428,-7897817,2,2,2,2
2025-09-03 13:05:13.663,-3701273,-6875194,-6807817,-3703396,2,2,2,2
2025-09-03 13:05:13.666,-1587982,-6875149,-2605571,-7897624,2,2,2,2
2025-09-03 13:05:13.669,-1604466,-6875180,-4711018,-7914110,2,2,2,2
2025-09-03 13:05:13.672,-1604333,-6875369,-6808037,-7914233,2,2,2,2
2025-09-03 13:05:13.675,-1604132,-4778010,-6807877,-7897713,2,2,2,2
2025-09-03 13:05:13.678,-1587814,-6874977,-2605419,-7897382,2,2,2,2
2025-09-03 13:05:13.680,-1604086,-6875079,-6807801,-3703282,2,2,2,2
2025-09-03 13:05:13.683,-1604100,-4777965,-6807815,-7897594,2,2,2,2
2025-09-03 13:05:13.686,-1604114,-6874883,-6807816,-7913739,2,2,2,2
2025-09-03 13:05:13.689,-1604083,-6875113,-6807791,-7913974,2,2,2,2
2025-09-03 13:05:13.691,-1587638,-6875013,-2613400,-7897549,2,2,2,2
2025-09-03 13:05:13.694,-1587575,-6874905,-2613364,-7897444,2,2,2,2
2025-09-03 13:05:13.697,-1587696,-6874778,-6807786,-7897237,2,2,2,2
2025-09-03 13:05:13.699,-1603953,-2672156,-6807600,-7897111,2,2,2,2
2025-09-03 13:05:13.702,-1603845,-6874862,-4710653,-7913695,2,2,2,2
2025-09-03 13:05:13.705,-1604095,-6874781,-6807791,-7897238,2,2,2,2
2025-09-03 13:05:13.708,-1604084,-6874763,-6807806,-3702934,2,2,2,2
2025-09-03 13:05:13.710,-1604074,-6875075,-2613477,-7913774,2,2,2,2
2025-09-03 13:05:13.713,-1603941,-6874870,-4710502,-7913669,2,2,2,2
2025-09-03 13:05:13.716,-1603871,-4777714,-6807609,-7897243,2,2,2,2
2025-09-03 13:05:13.719,-1603842,-2680475,-6807806,-7897225,2,2,2,2
2025-09-03 13:05:13.721,-1603847,-4777621,-6807805,-7897221,2,2,2,2
2025-09-03 13:05:13.724,-1604034,-4777725,-6807602,-7897330,2,2,2,2
2025-09-03 13:05:13.727,-1587670,-6874902,-6807688,-7897336,2,2,2,2
2025-09-03 13:05:13.730,-1603996,-6874662,-4710545,-7913473,2,2,2,2
2025-09-03 13:05:13.732,-1587584,-6874630,-2605172,-7897319,2,2,2,2
2025-09-03 13:05:13.735,-1587520,-6874874,-6807667,-7897241,2,2,2,2
2025-09-03 13:05:13.738,-1603837,-6874745,-6807545,-7897192,2,2,2,2
2025-09-03 13:05:13.740,-1603823,-6874411,-4693918,-7880451,2,2,2,2
2025-09-03 13:05:13.743,-1587395,-6874611,-2613104,-7896980,2,2,2,2
2025-09-03 13:05:13.746,-1587343,-6874375,-2596731,-7897051,2,2,2,2
2025-09-03 13:05:13.749,-1603634,-2680223,-6790945,-7896950,2,2,2,2
2025-09-03 13:05:13.752,-1603715,-2680301,-6790951,-7896961,2,2,2,2
2025-09-03 13:05:13.754,-3700732,-6874443,-6790890,-3686144,2,2,2,2
2025-09-03 13:05:13.757,-3700759,-6874428,-6790917,-7880470,2,2,2,2
2025-09-03 13:05:13.760,-3700640,-6874373,-6790798,-7880348,2,2,2,2
2025-09-03 13:05:13.763,-1603453,-6874336,-4693608,-7880314,2,2,2,2
2025-09-03 13:05:13.765,-1603567,-2671887,-6790868,-7896734,2,2,2,2
2025-09-03 13:05:13.768,-1603433,-2671740,-6790660,-3702287,2,2,2,2
2025-09-03 13:05:13.771,-1603445,-6874330,-2596374,-7896614,2,2,2,2
2025-09-03 13:05:13.774,-1603426,-6874228,-6790908,-3702278,2,2,2,2
2025-09-03 13:05:13.776,-1603537,-4777193,-6807155,-7896687,2,2,2,2
2025-09-03 13:05:13.779,-1586958,-6874218,-2596596,-7896826,2,2,2,2
2025-09-03 13:05:13.782,-1587080,-6874261,-2596457,-7896616,2,2,2,2
2025-09-03 13:05:13.785,-1587086,-6874268,-2604659,-7896608,2,2,2,2
2025-09-03 13:05:13.787,-1603540,-4777190,-6807091,-7896683,2,2,2,2
2025-09-03 13:05:13.790,-1603308,-2679801,-6806982,-7896457,2,2,2,2
2025-09-03 13:05:13.793,-1603209,-2671511,-6790442,-7896347,2,2,2,2
2025-09-03 13:05:13.795,-1587080,-6874268,-2596460,-7896604,2,2,2,2
2025-09-03 13:05:13.798,-3700336,-6873932,-6790407,-3685877,2,2,2,2
2025-09-03 13:05:13.801,-1586881,-6874084,-2612601,-7896350,2,2,2,2
2025-09-03 13:05:13.804,-1603076,-6874112,-6806973,-7896438,2,2,2,2
2025-09-03 13:05:13.806,-1586891,-6874016,-2612611,-7896345,2,2,2,2
2025-09-03 13:05:13.809,-1586906,-6873981,-6806893,-7896313,2,2,2,2
2025-09-03 13:05:13.812,-1603304,-2679692,-6790450,-7896334,2,2,2,2
2025-09-03 13:05:13.815,-1586838,-6873972,-2596201,-7896308,2,2,2,2
2025-09-03 13:05:13.817,-1603265,-4776735,-6806840,-7896221,2,2,2,2
2025-09-03 13:05:13.820,-1586716,-6873855,-2596080,-7896119,2,2,2,2
2025-09-03 13:05:13.823,-1602950,-6873634,-6790173,-7879867,2,2,2,2
2025-09-03 13:05:13.826,-1603047,-2671230,-6790200,-7896065,2,2,2,2
2025-09-03 13:05:13.828,-1586937,-6873998,-2604425,-7896330,2,2,2,2
2025-09-03 13:05:13.831,-1603303,-2671493,-6790463,-7896318,2,2,2,2
2025-09-03 13:05:13.834,-1603192,-6873864,-6790402,-7879813,2,2,2,2
2025-09-03 13:05:13.837,-1603205,-6873906,-4693356,-7879869,2,2,2,2
2025-09-03 13:05:13.839,-1603011,-6873631,-6806546,-7896209,2,2,2,2
2025-09-03 13:05:13.842,-1603037,-6873714,-6806646,-7896041,2,2,2,2
2025-09-03 13:05:13.845,-1602611,-4776442,-6806276,-7895921,2,2,2,2
2025-09-03 13:05:13.848,-1602833,-2679444,-6790369,-7896064,2,2,2,2
2025-09-03 13:05:13.851,-1586622,-6873700,-2604146,-7896020,2,2,2,2
2025-09-03 13:05:13.854,-1586398,-6873445,-6806376,-7895948,2,2,2,2
2025-09-03 13:05:13.856,-1602797,-4776304,-6806393,-7895957,2,2,2,2
2025-09-03 13:05:13.860,-1586191,-6873479,-2603928,-7895787,2,2,2,2
2025-09-03 13:05:13.862,-1602793,-6873401,-6790006,-3701636,2,2,2,2
2025-09-03 13:05:13.865,-1586410,-6873445,-2595706,-7896006,2,2,2,2
2025-09-03 13:05:13.867,-1586307,-6873589,-2603792,-7895843,2,2,2,2
2025-09-03 13:05:13.870,-1602789,-4776218,-6806315,-7895937,2,2,2,2
2025-09-03 13:05:13.873,-1586275,-6873497,-2595822,-7895803,2,2,2,2
2025-09-03 13:05:13.875,-1602706,-6873348,-6789915,-3701526,2,2,2,2
2025-09-03 13:05:13.878,-1586308,-6873586,-2595591,-7895814,2,2,2,2
2025-09-03 13:05:13.880,-1586326,-6873359,-2603808,-7895582,2,2,2,2
2025-09-03 13:05:13.883,-1602584,-4776079,-6806210,-7895710,2,2,2,2
2025-09-03 13:05:13.885,-1586336,-6873355,-2595694,-7895574,2,2,2,2
2025-09-03 13:05:13.888,-1602588,-6873480,-6806518,-7895694,2,2,2,2
2025-09-03 13:05:13.890,-1602560,-6873136,-2595479,-7895610,2,2,2,2
2025-09-03 13:05:13.893,-1586167,-6873118,-6806163,-7895659,2,2,2,2
2025-09-03 13:05:13.895,-1602547,-6873120,-6806150,-7895325,2,2,2,2
2025-09-03 13:05:13.898,-1602552,-2670614,-6789695,-7895394,2,2,2,2
2025-09-03 13:05:13.901,-1602463,-6873092,-6789736,-7878926,2,2,2,2
2025-09-03 13:05:13.903,-1602448,-6856689,-6789659,-7879160,2,2,2,2
2025-09-03 13:05:13.906,-1585977,-6856571,-2611695,-7895428,2,2,2,2
2025-09-03 13:05:13.909,-1602295,-6856465,-2595195,-7895060,2,2,2,2
2025-09-03 13:05:13.912,-1602098,-4759436,-6806009,-7895173,2,2,2,2
2025-09-03 13:05:13.915,-1602056,-2662163,-6789579,-7895065,2,2,2,2
2025-09-03 13:05:13.917,-1585915,-6856458,-2603395,-7895053,2,2,2,2
2025-09-03 13:05:13.920,-3699297,-6872948,-6789607,-3700837,2,2,2,2
2025-09-03 13:05:13.923,-1602294,-6856458,-6789500,-7878658,2,2,2,2
2025-09-03 13:05:13.926,-1602157,-6856643,-4692464,-7878775,2,2,2,2
2025-09-03 13:05:13.928,-1602156,-6856391,-4692227,-7878783,2,2,2,2
2025-09-03 13:05:13.931,-1602009,-6856423,-6805567,-7894931,2,2,2,2
2025-09-03 13:05:13.934,-1601838,-6856309,-6805746,-7894885,2,2,2,2
2025-09-03 13:05:13.936,-1585692,-6856246,-2595056,-7895079,2,2,2,2
2025-09-03 13:05:13.939,-1585720,-6856316,-6805765,-7895153,2,2,2,2
2025-09-03 13:05:13.942,-1601911,-6856254,-4691978,-7878449,2,2,2,2
2025-09-03 13:05:13.944,-1601992,-6856326,-6805522,-7894901,2,2,2,2
2025-09-03 13:05:13.947,-1601818,-6856200,-4692127,-7878404,2,2,2,2
2025-09-03 13:05:13.949,-1602021,-6872717,-6789222,-3700618,2,2,2,2
2025-09-03 13:05:13.952,-1602048,-6856438,-6805644,-7895015,2,2,2,2
2025-09-03 13:05:13.955,-1602031,-6856161,-4692097,-7878591,2,2,2,2
2025-09-03 13:05:13.957,-1602034,-6856094,-6805620,-7894929,2,2,2,2
2025-09-03 13:05:13.960,-1601795,-4759023,-6805427,-7894762,2,2,2,2
2025-09-03 13:05:13.963,-1601804,-6856174,-4691862,-7878378,2,2,2,2
2025-09-03 13:05:13.965,-1585653,-6856088,-2594942,-7894999,2,2,2,2
2025-09-03 13:05:13.968,-1601798,-6872554,-6789004,-3700378,2,2,2,2
2025-09-03 13:05:13.971,-1601807,-6856176,-2594704,-7894742,2,2,2,2
2025-09-03 13:05:13.974,-1585184,-6855932,-2602906,-7894756,2,2,2,2
2025-09-03 13:05:13.976,-1585169,-6855924,-2610830,-7894422,2,2,2,2
2025-09-03 13:05:13.979,-1601637,-2669820,-6788836,-7894505,2,2,2,2
2025-09-03 13:05:13.982,-1601669,-6855716,-6788877,-7878171,2,2,2,2
2025-09-03 13:05:13.984,-1601547,-2669809,-6788815,-7894427,2,2,2,2
2025-09-03 13:05:13.987,-1584970,-6855703,-2610689,-7894523,2,2,2,2
2025-09-03 13:05:13.990,-1601390,-6855436,-6788593,-7877878,2,2,2,2
2025-09-03 13:05:13.993,-1601180,-6855480,-4691310,-7877705,2,2,2,2
2025-09-03 13:05:13.995,-1601035,-2669285,-6788562,-7894163,2,2,2,2
2025-09-03 13:05:13.998,-1601149,-2669341,-6788364,-3699719,2,2,2,2
2025-09-03 13:05:14.001,-1601279,-6855317,-6804879,-7894152,2,2,2,2
2025-09-03 13:05:14.004,-1601276,-6871700,-6788497,-3699844,2,2,2,2
2025-09-03 13:05:14.006,-1592984,-6855223,-2594164,-7894049,2,2,2,2
2025-09-03 13:05:14.009,-1600896,-6855197,-6788122,-7877392,2,2,2,2
2025-09-03 13:05:14.012,-1584518,-6855011,-2602014,-7893771,2,2,2,2
2025-09-03 13:05:14.014,-1600872,-2660849,-6788091,-7893658,2,2,2,2
2025-09-03 13:05:14.017,-3697809,-6871368,-6787961,-3682841,2,2,2,2
2025-09-03 13:05:14.020,-3697898,-6871490,-6787984,-7877231,2,2,2,2
2025-09-03 13:05:14.023,-3698018,-6871537,-6788101,-7877361,2,2,2,2
2025-09-03 13:05:14.025,-1600537,-6854889,-4690938,-7877317,2,2,2,2
2025-09-03 13:05:14.028,-1600759,-6854855,-6787989,-7877245,2,2,2,2
2025-09-03 13:05:14.031,-1600705,-6854683,-6804332,-7893518,2,2,2,2
2025-09-03 13:05:14.034,-1600466,-6854761,-6804095,-7893345,2,2,2,2
2025-09-03 13:05:14.036,-1600632,-6854682,-4690805,-7877132,2,2,2,2
2025-09-03 13:05:14.039,-1600458,-4757629,-6804154,-7893350,2,2,2,2
2025-09-03 13:05:14.042,-1600412,-6854594,-4690591,-7876980,2,2,2,2
2025-09-03 13:05:14.045,-1600257,-2668440,-6787590,-7893148,2,2,2,2
2025-09-03 13:05:14.048,-1583811,-6854280,-2601459,-7893190,2,2,2,2
2025-09-03 13:05:14.050,-3697277,-6870604,-6787467,-3682326,2,2,2,2
2025-09-03 13:05:14.053,-1599757,-6854157,-6787191,-7876606,2,2,2,2
2025-09-03 13:05:14.056,-1599866,-6853950,-6787299,-7876427,2,2,2,2
2025-09-03 13:05:14.058,-1583217,-6854000,-2609054,-7892590,2,2,2,2
2025-09-03 13:05:14.061,-1599506,-2667538,-6787012,-7892478,2,2,2,2
2025-09-03 13:05:14.064,-1599252,-6853639,-6803074,-7892468,2,2,2,2
2025-09-03 13:05:14.067,-1599340,-6869863,-6786787,-3689733,2,2,2,2
2025-09-03 13:05:14.070,-1599018,-4756333,-6802927,-7891992,2,2,2,2
2025-09-03 13:05:14.073,-3696152,-6869534,-6786531,-3681299,2,2,2,2
2025-09-03 13:05:14.075,-3695990,-6869555,-6786291,-7875433,2,2,2,2
2025-09-03 13:05:14.078,-1582352,-6853131,-2591876,-7891938,2,2,2,2
2025-09-03 13:05:14.080,-1598856,-6852925,-6786295,-7875354,2,2,2,2
2025-09-03 13:05:14.083,-1582111,-6852893,-2591715,-7891711,2,2,2,2
2025-09-03 13:05:14.086,-1582217,-6852748,-2591512,-7891511,2,2,2,2
2025-09-03 13:05:14.088,-1598479,-4755476,-6802396,-7891457,2,2,2,2
2025-09-03 13:05:14.091,-1598418,-4755600,-6802230,-7891328,2,2,2,2
2025-09-03 13:05:14.094,-1598184,-2658205,-6785557,-7891058,2,2,2,2
2025-09-03 13:05:14.096,-1597979,-2658041,-6785324,-7891075,2,2,2,2
2025-09-03 13:05:14.099,-3695127,-6868727,-6785392,-3680119,2,2,2,2
2025-09-03 13:05:14.102,-3694950,-6868492,-6785156,-7874448,2,2,2,2
2025-09-03 13:05:14.105,-1597550,-6868250,-6784912,-3688164,2,2,2,2
2025-09-03 13:05:14.108,-1581020,-6851739,-6801201,-7890195,2,2,2,2
2025-09-03 13:05:14.110,-1580795,-2657182,-6784517,-7890173,2,2,2,2
2025-09-03 13:05:14.113,-1580568,-6851231,-2590200,-7889892,2,2,2,2
2025-09-03 13:05:14.116,-1580422,-6851100,-2589807,-7889691,2,2,2,2
2025-09-03 13:05:14.118,-3677463,-6867441,-6784007,-3687175,2,2,2,2
2025-09-03 13:05:14.121,-1580332,-4753693,-6800505,-7889514,2,2,2,2
2025-09-03 13:05:14.124,-1580092,-2656610,-6783807,-7889437,2,2,2,2
2025-09-03 13:05:14.127,-1580053,-6850762,-4686561,-7872848,2,2,2,2
2025-09-03 13:05:14.130,-1579797,-6850360,-6783608,-7872515,2,2,2,2
2025-09-03 13:05:14.132,-1588078,-6850533,-4686311,-7872550,2,2,2,2
2025-09-03 13:05:14.135,-1579659,-6866741,-6783255,-3686384,2,2,2,2
2025-09-03 13:05:14.138,-1579523,-6850191,-6799547,-7872356,2,2,2,2
2025-09-03 13:05:14.140,-1579364,-6850038,-4685815,-7872123,2,2,2,2
2025-09-03 13:05:14.143,-1587310,-6849777,-4685466,-7871759,2,2,2,2
2025-09-03 13:05:14.146,-1578871,-6849426,-2588023,-7871446,2,2,2,2
2025-09-03 13:05:14.149,-1578607,-6849177,-2588036,-7871454,2,2,2,2
2025-09-03 13:05:14.152,-1578519,-6849177,-2587770,-7871199,2,2,2,2
2025-09-03 13:05:14.154,-1578547,-6849250,-2587782,-7871214,2,2,2,2
2025-09-03 13:05:14.157,-1578253,-6865375,-6782083,-7871128,2,2,2,2
2025-09-03 13:05:14.160,-1578128,-2654458,-6781636,-7870607,2,2,2,2
2025-09-03 13:05:14.163,-1577751,-2654050,-6781415,-7870433,2,2,2,2
2025-09-03 13:05:14.166,-1577848,-6848400,-2586894,-7870463,2,2,2,2
2025-09-03 13:05:14.169,-1577590,-2653921,-6780965,-7870061,2,2,2,2
2025-09-03 13:05:14.171,-1577465,-6847849,-2586601,-7869933,2,2,2,2
2025-09-03 13:05:14.174,-1577263,-2653588,-6764306,-7869719,2,2,2,2
2025-09-03 13:05:14.177,-1577067,-2653289,-6780634,-7869556,2,2,2,2
2025-09-03 13:05:14.180,-1576916,-6847359,-6763954,-7869284,2,2,2,2
2025-09-03 13:05:14.183,-1576684,-6847207,-4682985,-7869055,2,2,2,2
2025-09-03 13:05:14.185,-1576475,-4749926,-6763641,-7868948,2,2,2,2
2025-09-03 13:05:14.188,-1576420,-6830586,-6779663,-3682789,2,2,2,2
2025-09-03 13:05:14.191,-1576051,-6830204,-6779521,-3682310,2,2,2,2
2025-09-03 13:05:14.194,-1575537,-6829569,-6779131,-3673623,2,2,2,2
2025-09-03 13:05:14.197,-1575271,-6845912,-6778751,-7867535,2,2,2,2
2025-09-03 13:05:14.200,-1575167,-6845560,-6762009,-7867422,2,2,2,2
2025-09-03 13:05:14.202,-1575026,-2651152,-6778604,-7867401,2,2,2,2
2025-09-03 13:05:14.205,-1574854,-6845324,-2567526,-7867339,2,2,2,2
2025-09-03 13:05:14.207,-3672059,-6829016,-6778228,-7867021,2,2,2,2
2025-09-03 13:05:14.210,-1574511,-6828490,-6777848,-7866609,2,2,2,2
2025-09-03 13:05:14.212,-1573935,-6844519,-6760830,-7866137,2,2,2,2
2025-09-03 13:05:14.215,-1573871,-6844380,-6777077,-7865996,2,2,2,2
2025-09-03 13:05:14.218,-1573870,-6844165,-6760480,-7865854,2,2,2,2
2025-09-03 13:05:14.221,-1573408,-6844112,-4679667,-7865814,2,2,2,2
2025-09-03 13:05:14.223,-1573355,-6843754,-6760314,-7865364,2,2,2,2
2025-09-03 13:05:14.226,-1573090,-6843552,-6759822,-7865099,2,2,2,2
2025-09-03 13:05:14.229,-1572604,-6842909,-2581403,-7864552,2,2,2,2
2025-09-03 13:05:14.232,-1572487,-6842859,-2581022,-7864102,2,2,2,2
2025-09-03 13:05:14.234,-3669254,-6826180,-6775394,-3669879,2,2,2,2
2025-09-03 13:05:14.237,-1572145,-6842492,-6758909,-7864174,2,2,2,2
2025-09-03 13:05:14.240,-1571953,-6842316,-2580732,-7863848,2,2,2,2
2025-09-03 13:05:14.243,-1571540,-2647653,-6758197,-7863418,2,2,2,2
2025-09-03 13:05:14.245,-3668243,-6825012,-6757885,-3668638,2,2,2,2
2025-09-03 13:05:14.248,-1570827,-4743952,-6757629,-7862670,2,2,2,2
2025-09-03 13:05:14.251,-3667847,-6824716,-6757379,-7862502,2,2,2,2
2025-09-03 13:05:14.254,-1570307,-6840840,-6757133,-7862276,2,2,2,2
2025-09-03 13:05:14.256,-1570150,-6840364,-4659555,-7861800,2,2,2,2
2025-09-03 13:05:14.259,-1569909,-2637827,-6756564,-7861615,2,2,2,2
2025-09-03 13:05:14.261,-1569634,-6823434,-6755955,-7861124,2,2,2,2
2025-09-03 13:05:14.265,-1569274,-6823129,-2561174,-7860704,2,2,2,2
2025-09-03 13:05:14.268,-1569001,-6822918,-2569245,-7860673,2,2,2,2
2025-09-03 13:05:14.270,-1568769,-2628507,-6755579,-7860606,2,2,2,2
2025-09-03 13:05:14.273,-1568557,-4725519,-6755149,-7860462,2,2,2,2
2025-09-03 13:05:14.275,-1568263,-2627940,-6754843,-7859849,2,2,2,2
2025-09-03 13:05:14.278,-1568000,-6821730,-2559972,-7859261,2,2,2,2
2025-09-03 13:05:14.281,-1567724,-6821632,-2559604,-7858933,2,2,2,2
2025-09-03 13:05:14.283,-1567630,-6821429,-6753937,-3656304,2,2,2,2
2025-09-03 13:05:14.286,-3664395,-6821196,-6753797,-3664385,2,2,2,2
2025-09-03 13:05:14.289,-1567043,-6821015,-2559347,-7858494,2,2,2,2
2025-09-03 13:05:14.292,-1566743,-6820558,-6753054,-3655654,2,2,2,2
2025-09-03 13:05:14.295,-1566272,-6819940,-6752314,-7857256,2,2,2,2
2025-09-03 13:05:14.298,-1557899,-6819633,-2557709,-7856905,2,2,2,2
2025-09-03 13:05:14.301,-1565838,-2625292,-6751984,-7857009,2,2,2,2
2025-09-03 13:05:14.303,-1565667,-2625261,-6751984,-7856777,2,2,2,2
2025-09-03 13:05:14.306,-3662461,-6819259,-6751632,-3654250,2,2,2,2
2025-09-03 13:05:14.309,-1565027,-2624405,-6751013,-3645319,2,2,2,2
2025-09-03 13:05:14.312,-1548247,-6818335,-6750581,-7838977,2,2,2,2
2025-09-03 13:05:14.315,-1548040,-6818178,-6750393,-7838821,2,2,2,2
2025-09-03 13:05:14.317,-1556093,-6817994,-2556149,-7838956,2,2,2,2
2025-09-03 13:05:14.320,-1563922,-6818041,-2556010,-7838921,2,2,2,2
2025-09-03 13:05:14.323,-1547468,-2623350,-6815465,-7838481,2,2,2,2
2025-09-03 13:05:14.326,-3644136,-6817036,-6814999,-3651851,2,2,2,2
2025-09-03 13:05:14.328,-3643784,-6816736,-6814317,-7853712,2,2,2,2
2025-09-03 13:05:14.331,-1546472,-4719346,-6814003,-7837067,2,2,2,2
2025-09-03 13:05:14.334,-3643251,-6816271,-6814177,-7853337,2,2,2,2
2025-09-03 13:05:14.337,-1545881,-6816024,-4716810,-7853309,2,2,2,2
2025-09-03 13:05:14.339,-1553924,-6815957,-4716667,-7853102,2,2,2,2
2025-09-03 13:05:14.342,-1545429,-6815388,-6813287,-7836062,2,2,2,2
2025-09-03 13:05:14.345,-1544860,-6814935,-6812648,-7851905,2,2,2,2
2025-09-03 13:05:14.347,-1544479,-2620162,-6812412,-7835011,2,2,2,2
2025-09-03 13:05:14.350,-1560719,-6814442,-2617831,-7835093,2,2,2,2
2025-09-03 13:05:14.352,-1544195,-2620167,-6812204,-7835030,2,2,2,2
2025-09-03 13:05:14.355,-3641112,-6814413,-6812151,-3657076,2,2,2,2
2025-09-03 13:05:14.357,-1544043,-2619874,-6811897,-7834746,2,2,2,2
2025-09-03 13:05:14.360,-1543326,-6813411,-4713851,-7850252,2,2,2,2
2025-09-03 13:05:14.363,-1559301,-6812807,-2607877,-7833120,2,2,2,2
2025-09-03 13:05:14.365,-1542676,-6812673,-6810491,-7849703,2,2,2,2
2025-09-03 13:05:14.368,-1542803,-2618395,-6810613,-7833316,2,2,2,2
2025-09-03 13:05:14.371,-1542516,-2618507,-6810404,-7833224,2,2,2,2
2025-09-03 13:05:14.373,-1542242,-2618247,-6810146,-7832968,2,2,2,2
2025-09-03 13:05:14.376,-1541899,-2617733,-6809583,-7832464,2,2,2,2
2025-09-03 13:05:14.379,-1541360,-2608737,-6808855,-7831652,2,2,2,2
2025-09-03 13:05:14.381,-1541223,-2608544,-6808786,-3637145,2,2,2,2
2025-09-03 13:05:14.384,-1557427,-6811122,-2614507,-7831400,2,2,2,2
2025-09-03 13:05:14.387,-1541223,-6811154,-4711792,-7848016,2,2,2,2
2025-09-03 13:05:14.390,-1541090,-6811108,-4711428,-7815159,2,2,2,2
2025-09-03 13:05:14.392,-1540627,-2608260,-6808258,-7831053,2,2,2,2
2025-09-03 13:05:14.395,-1539985,-6810084,-4693858,-7813885,2,2,2,2
2025-09-03 13:05:14.398,-1523359,-6809843,-2596456,-7829762,2,2,2,2
2025-09-03 13:05:14.401,-1539721,-6809710,-6790892,-3635706,2,2,2,2
2025-09-03 13:05:14.403,-1523377,-6809872,-2605037,-7830073,2,2,2,2
2025-09-03 13:05:14.407,-1523398,-6809697,-2612981,-7830153,2,2,2,2
2025-09-03 13:05:14.409,-1539085,-2606606,-6790192,-7829394,2,2,2,2
2025-09-03 13:05:14.412,-1538717,-2605977,-6789579,-7828491,2,2,2,2
2025-09-03 13:05:14.414,-1538559,-6808312,-6805732,-7828232,2,2,2,2
2025-09-03 13:05:14.417,-1538457,-6808351,-6789396,-7812087,2,2,2,2
2025-09-03 13:05:14.420,-1522125,-6808352,-2611560,-7828625,2,2,2,2
2025-09-03 13:05:14.422,-3635319,-6808323,-6789386,-7812228,2,2,2,2
2025-09-03 13:05:14.425,-1521381,-6807794,-2594456,-7827937,2,2,2,2
2025-09-03 13:05:14.428,-1537156,-6790850,-4690922,-7810614,2,2,2,2
2025-09-03 13:05:14.430,-1537008,-6790610,-4690662,-7810554,2,2,2,2
2025-09-03 13:05:14.434,-1520390,-6790528,-2593511,-7826723,2,2,2,2
2025-09-03 13:05:14.437,-1536900,-6790636,-6787955,-7810682,2,2,2,2
2025-09-03 13:05:14.439,-1536769,-6790461,-4690941,-7810571,2,2,2,2
2025-09-03 13:05:14.442,-1520312,-6790296,-2601480,-7826658,2,2,2,2
2025-09-03 13:05:14.445,-1519416,-6789397,-6803193,-7825647,2,2,2,2
2025-09-03 13:05:14.448,-1535740,-6789001,-6802718,-7825160,2,2,2,2
2025-09-03 13:05:14.450,-1535623,-6789343,-6786432,-7809204,2,2,2,2
2025-09-03 13:05:14.453,-1527703,-6789602,-2592415,-7825724,2,2,2,2
2025-09-03 13:05:14.456,-1535742,-2595100,-6786590,-7825672,2,2,2,2
2025-09-03 13:05:14.459,-1535346,-6805301,-6786293,-3622763,2,2,2,2
2025-09-03 13:05:14.461,-1534741,-4691100,-6801928,-7824612,2,2,2,2
2025-09-03 13:05:14.464,-1534460,-4690786,-6801469,-7824124,2,2,2,2
2025-09-03 13:05:14.467,-1518112,-6787856,-2590837,-7824157,2,2,2,2
2025-09-03 13:05:14.469,-1534695,-2593934,-6785540,-7824507,2,2,2,2
2025-09-03 13:05:14.472,-1534698,-2594023,-6785322,-7824622,2,2,2,2
2025-09-03 13:05:14.475,-1534225,-6804208,-6785125,-7807624,2,2,2,2
2025-09-03 13:05:14.477,-1533807,-6787326,-6784502,-7806853,2,2,2,2
2025-09-03 13:05:14.480,-1517066,-6786844,-2589693,-7806484,2,2,2,2
2025-09-03 13:05:14.483,-3630355,-6803166,-6783880,-3612173,2,2,2,2
2025-09-03 13:05:14.486,-1517261,-6787098,-2606433,-7806822,2,2,2,2
2025-09-03 13:05:14.489,-1533411,-6786969,-6800567,-7806728,2,2,2,2
2025-09-03 13:05:14.491,-1525120,-6786864,-4686866,-7806580,2,2,2,2
2025-09-03 13:05:14.494,-1532446,-2591739,-6783032,-3611386,2,2,2,2
2025-09-03 13:05:14.497,-1532177,-6802022,-6782600,-3610770,2,2,2,2
2025-09-03 13:05:14.500,-1515789,-6785666,-2588400,-7805208,2,2,2,2
2025-09-03 13:05:14.502,-1532210,-4688867,-6799419,-7805452,2,2,2,2
2025-09-03 13:05:14.505,-1515907,-6785818,-2588916,-7805687,2,2,2,2
2025-09-03 13:05:14.508,-1531921,-6785764,-4685593,-7805238,2,2,2,2
2025-09-03 13:05:14.511,-1515021,-6784831,-6781819,-7804385,2,2,2,2
2025-09-03 13:05:14.513,-1514500,-6784261,-2587108,-7803868,2,2,2,2
2025-09-03 13:05:14.516,-1514569,-6784402,-2570876,-7804038,2,2,2,2
2025-09-03 13:05:14.519,-1514778,-6801044,-6781842,-3618175,2,2,2,2
2025-09-03 13:05:14.522,-1514792,-6784759,-6765323,-7804421,2,2,2,2
2025-09-03 13:05:14.525,-3611753,-6801139,-6781681,-3618281,2,2,2,2
2025-09-03 13:05:14.527,-1514100,-6783982,-2586476,-7803198,2,2,2,2
2025-09-03 13:05:14.530,-1513580,-6799725,-6780305,-3608435,2,2,2,2
2025-09-03 13:05:14.533,-1513503,-6783359,-2586098,-7802836,2,2,2,2
2025-09-03 13:05:14.535,-1522077,-6783720,-2586481,-7803357,2,2,2,2
2025-09-03 13:05:14.538,-1513850,-6783747,-2586528,-7803193,2,2,2,2
2025-09-03 13:05:14.541,-1513475,-2589331,-6780449,-7803141,2,2,2,2
2025-09-03 13:05:14.543,-1513067,-6782971,-2585442,-7802162,2,2,2,2
2025-09-03 13:05:14.546,-1512676,-6782349,-2584970,-7801615,2,2,2,2
2025-09-03 13:05:14.549,-3609588,-6765824,-6779123,-7801499,2,2,2,2
2025-09-03 13:05:14.552,-1512491,-6782488,-6763112,-7802007,2,2,2,2
2025-09-03 13:05:14.554,-1512451,-6782588,-2585248,-7801908,2,2,2,2
2025-09-03 13:05:14.557,-1512437,-6782345,-2585062,-7802050,2,2,2,2
2025-09-03 13:05:14.559,-1512155,-4684774,-6762471,-7801355,2,2,2,2
2025-09-03 13:05:14.562,-1511665,-6781340,-2567528,-7800480,2,2,2,2
2025-09-03 13:05:14.565,-1511394,-6781076,-6761501,-7800470,2,2,2,2
2025-09-03 13:05:14.568,-1519714,-6781425,-4681101,-7800701,2,2,2,2
2025-09-03 13:05:14.570,-1511461,-6781594,-6762125,-7801082,2,2,2,2
2025-09-03 13:05:14.573,-1511622,-6781452,-6761981,-7800949,2,2,2,2
2025-09-03 13:05:14.576,-1511147,-6781180,-6761612,-7800473,2,2,2,2
2025-09-03 13:05:14.578,-1510507,-2585966,-6777283,-7799546,2,2,2,2
2025-09-03 13:05:14.581,-1510173,-6780144,-6760444,-7799063,2,2,2,2
2025-09-03 13:05:14.584,-1510248,-6780132,-2582784,-7799512,2,2,2,2
2025-09-03 13:05:14.587,-3607584,-6763910,-6777342,-3605258,2,2,2,2
2025-09-03 13:05:14.590,-1510342,-6780270,-2566540,-7799802,2,2,2,2
2025-09-03 13:05:14.592,-1510041,-2585497,-6776812,-7799198,2,2,2,2
2025-09-03 13:05:14.595,-1509483,-6779154,-4678815,-7863757,2,2,2,2
2025-09-03 13:05:14.598,-1509129,-2584803,-6775583,-7863664,2,2,2,2
2025-09-03 13:05:14.601,-1509481,-6779371,-2581650,-7863831,2,2,2,2
2025-09-03 13:05:14.604,-1509623,-6779423,-2581777,-7864095,2,2,2,2
2025-09-03 13:05:14.606,-1509336,-6779155,-6759690,-7864089,2,2,2,2
2025-09-03 13:05:14.609,-1508875,-6778920,-2581255,-7863553,2,2,2,2
2025-09-03 13:05:14.611,-1508375,-2575713,-6774981,-7862936,2,2,2,2
2025-09-03 13:05:14.614,-1508102,-6777989,-6758377,-7862417,2,2,2,2
2025-09-03 13:05:14.616,-1508112,-6777869,-6758261,-7862652,2,2,2,2
2025-09-03 13:05:14.619,-1508509,-2583956,-6775061,-7863015,2,2,2,2
2025-09-03 13:05:14.621,-3605651,-6761991,-6775169,-7863167,2,2,2,2
2025-09-03 13:05:14.624,-1508299,-6778123,-6758526,-7862911,2,2,2,2
2025-09-03 13:05:14.627,-1507586,-6777385,-6757736,-7861902,2,2,2,2
2025-09-03 13:05:14.630,-1572637,-6777051,-4660093,-7861270,2,2,2,2
2025-09-03 13:05:14.632,-1572863,-6777068,-2562944,-7861369,2,2,2,2
2025-09-03 13:05:14.635,-1507390,-6777110,-6757427,-7861916,2,2,2,2
2025-09-03 13:05:14.638,-1507334,-4680306,-6757754,-7862047,2,2,2,2
2025-09-03 13:05:14.640,-1572753,-6777342,-4660232,-7862012,2,2,2,2
2025-09-03 13:05:14.643,-1572368,-6776775,-4659744,-7861196,2,2,2,2
2025-09-03 13:05:14.646,-1571977,-6759697,-6756210,-3666189,2,2,2,2
2025-09-03 13:05:14.649,-1571811,-6775941,-2562018,-7860423,2,2,2,2
2025-09-03 13:05:14.651,-1571835,-4679050,-6756355,-7860579,2,2,2,2
2025-09-03 13:05:14.654,-1571890,-2581909,-6756377,-7860987,2,2,2,2
2025-09-03 13:05:14.657,-1571825,-6776099,-4659171,-7860610,2,2,2,2
2025-09-03 13:05:14.660,-1571102,-2572943,-6755816,-7859955,2,2,2,2
2025-09-03 13:05:14.663,-1570574,-6774919,-2560623,-7859177,2,2,2,2
2025-09-03 13:05:14.666,-1570591,-6775039,-2560747,-7859399,2,2,2,2
2025-09-03 13:05:14.668,-1570916,-6758911,-6755317,-3656982,2,2,2,2
2025-09-03 13:05:14.671,-1570839,-4678262,-6755464,-7859721,2,2,2,2
2025-09-03 13:05:14.674,-1570632,-6775178,-2569109,-7859499,2,2,2,2
2025-09-03 13:05:14.677,-1569933,-6757839,-4657251,-7858688,2,2,2,2
2025-09-03 13:05:14.680,-1569730,-6757616,-6753816,-7858046,2,2,2,2
2025-09-03 13:05:14.682,-1569565,-2571493,-6753826,-3663762,2,2,2,2
2025-09-03 13:05:14.686,-1569952,-2563723,-6754324,-7858791,2,2,2,2
2025-09-03 13:05:14.688,-1570048,-6757914,-6754540,-3656300,2,2,2,2
2025-09-03 13:05:14.691,-1569803,-6758002,-6754314,-3656319,2,2,2,2
2025-09-03 13:05:14.693,-1569521,-6757126,-4656508,-7857956,2,2,2,2
2025-09-03 13:05:14.696,-1569024,-6756640,-4655894,-7857206,2,2,2,2
2025-09-03 13:05:14.699,-1568782,-2562177,-6752812,-7857042,2,2,2,2
2025-09-03 13:05:14.701,-1568786,-6756678,-6753140,-3654940,2,2,2,2
2025-09-03 13:05:14.704,-1569058,-4659821,-6753418,-7857891,2,2,2,2
2025-09-03 13:05:14.707,-1568896,-6756822,-6753265,-7857431,2,2,2,2
2025-09-03 13:05:14.710,-1568492,-6756131,-6752528,-7856884,2,2,2,2
2025-09-03 13:05:14.712,-1567735,-2561122,-6751976,-7839716,2,2,2,2
2025-09-03 13:05:14.715,-3664883,-6755358,-6751645,-3661468,2,2,2,2
2025-09-03 13:05:14.718,-1567858,-6755780,-6752014,-7856309,2,2,2,2
2025-09-03 13:05:14.720,-1567823,-6755868,-2557949,-7856640,2,2,2,2
2025-09-03 13:05:14.724,-1567551,-2561417,-6752042,-7856246,2,2,2,2
2025-09-03 13:05:14.726,-1567295,-4658145,-6751551,-7839460,2,2,2,2
2025-09-03 13:05:14.729,-1566668,-4657397,-6750670,-7838443,2,2,2,2
2025-09-03 13:05:14.731,-1558249,-6754301,-4653286,-7854549,2,2,2,2
2025-09-03 13:05:14.734,-1566504,-4657255,-6750504,-7838359,2,2,2,2
2025-09-03 13:05:14.737,-1566736,-2560496,-6750983,-7838971,2,2,2,2
2025-09-03 13:05:14.740,-1566594,-6754682,-2556566,-7838942,2,2,2,2
2025-09-03 13:05:14.742,-3663380,-6754228,-6750599,-3652125,2,2,2,2
2025-09-03 13:05:14.745,-1565595,-6753532,-6749539,-7853575,2,2,2,2
2025-09-03 13:05:14.748,-1565476,-6753150,-6749335,-7837042,2,2,2,2
2025-09-03 13:05:14.751,-1565686,-6753499,-4652311,-7853642,2,2,2,2
2025-09-03 13:05:14.753,-1565835,-2559260,-6749933,-7837830,2,2,2,2
2025-09-03 13:05:14.757,-1565637,-2559353,-6749704,-7837683,2,2,2,2
2025-09-03 13:05:14.759,-1565155,-6753017,-6749281,-3650959,2,2,2,2
2025-09-03 13:05:14.762,-1548190,-6752236,-6748305,-3649890,2,2,2,2
2025-09-03 13:05:14.765,-1564549,-6752121,-2553875,-7836121,2,2,2,2
2025-09-03 13:05:14.767,-1556360,-6752283,-2554091,-7836148,2,2,2,2
2025-09-03 13:05:14.770,-1564649,-6752622,-2554471,-7836652,2,2,2,2
2025-09-03 13:05:14.772,-1548247,-6752373,-6748538,-7836424,2,2,2,2
2025-09-03 13:05:14.775,-1548008,-6752131,-6748280,-7836170,2,2,2,2
2025-09-03 13:05:14.777,-1547274,-2557054,-6747643,-7835288,2,2,2,2
2025-09-03 13:05:14.780,-1563379,-6750862,-6747038,-7834640,2,2,2,2
2025-09-03 13:05:14.783,-1546738,-6750731,-6746906,-3640307,2,2,2,2
2025-09-03 13:05:14.786,-3643926,-6751100,-6747367,-3656966,2,2,2,2
2025-09-03 13:05:14.789,-1563381,-6751376,-2553105,-7835346,2,2,2,2
2025-09-03 13:05:14.791,-1546948,-4653849,-6747348,-7834894,2,2,2,2
2025-09-03 13:05:14.794,-1562362,-6815498,-2551795,-7833711,2,2,2,2
2025-09-03 13:05:14.797,-1562093,-6815099,-6745610,-7833109,2,2,2,2
2025-09-03 13:05:14.800,-1553680,-6815261,-4648679,-7849749,2,2,2,2
2025-09-03 13:05:14.802,-1545837,-2621311,-6745903,-3639415,2,2,2,2
2025-09-03 13:05:14.805,-1545733,-6815628,-6745993,-7833837,2,2,2,2
2025-09-03 13:05:14.808,-1545457,-6815368,-6745715,-7833571,2,2,2,2
2025-09-03 13:05:14.810,-1544943,-2620261,-6745054,-7832689,2,2,2,2
2025-09-03 13:05:14.813,-1544315,-2619661,-6744347,-3637533,2,2,2,2
2025-09-03 13:05:14.816,-1544316,-6813795,-6744183,-3637633,2,2,2,2
2025-09-03 13:05:14.819,-1560847,-6814447,-2550371,-7832326,2,2,2,2
2025-09-03 13:05:14.821,-1544654,-4717313,-6744879,-7832706,2,2,2,2
2025-09-03 13:05:14.824,-1560857,-6814353,-2550526,-7832334,2,2,2,2
2025-09-03 13:05:14.827,-1543804,-6813657,-6743947,-7815160,2,2,2,2
2025-09-03 13:05:14.830,-1559562,-6812793,-6743293,-7830753,2,2,2,2
2025-09-03 13:05:14.832,-1543395,-6812727,-6743279,-7814380,2,2,2,2
2025-09-03 13:05:14.835,-1559796,-6813054,-2540806,-7831249,2,2,2,2
2025-09-03 13:05:14.837,-3640560,-6813199,-6743534,-3620600,2,2,2,2
2025-09-03 13:05:14.840,-1543323,-6812932,-6743454,-7814897,2,2,2,2
2025-09-03 13:05:14.843,-1542790,-2618368,-6742848,-7830524,2,2,2,2
2025-09-03 13:05:14.845,-3639305,-6811707,-6742138,-7813150,2,2,2,2
2025-09-03 13:05:14.849,-1558389,-6811620,-2530971,-7829306,2,2,2,2
2025-09-03 13:05:14.851,-1541904,-4714614,-6741878,-7829730,2,2,2,2
2025-09-03 13:05:14.854,-1558762,-6812155,-2547978,-7829995,2,2,2,2
2025-09-03 13:05:14.857,-1558418,-6811886,-2547966,-7830002,2,2,2,2
2025-09-03 13:05:14.860,-1557766,-6811267,-2547043,-7829049,2,2,2,2
2025-09-03 13:05:14.862,-1557399,-6810617,-2529890,-7828198,2,2,2,2
2025-09-03 13:05:14.865,-1557347,-6810495,-2538129,-7827985,2,2,2,2
2025-09-03 13:05:14.868,-1557493,-6810605,-2546458,-7828246,2,2,2,2
2025-09-03 13:05:14.870,-1541115,-2608374,-6724667,-7828722,2,2,2,2
2025-09-03 13:05:14.873,-1541022,-2608382,-6724404,-7828488,2,2,2,2
2025-09-03 13:05:14.876,-1540734,-2607889,-6724137,-3633816,2,2,2,2
2025-09-03 13:05:14.878,-1539864,-6809397,-6723087,-7810696,2,2,2,2
2025-09-03 13:05:14.881,-1539840,-2614802,-6723028,-7826932,2,2,2,2
2025-09-03 13:05:14.883,-1523337,-6809366,-2536930,-7826996,2,2,2,2
2025-09-03 13:05:14.886,-1539859,-6809577,-6723221,-7811069,2,2,2,2
2025-09-03 13:05:14.889,-1539970,-6809663,-6723447,-7811059,2,2,2,2
2025-09-03 13:05:14.891,-1539588,-2615292,-6723302,-7827219,2,2,2,2
2025-09-03 13:05:14.894,-1522706,-6808731,-2536199,-7826387,2,2,2,2
2025-09-03 13:05:14.896,-1538556,-2613752,-6721777,-7825664,2,2,2,2
2025-09-03 13:05:14.899,-1538330,-2613620,-6721572,-7825542,2,2,2,2
2025-09-03 13:05:14.902,-1538673,-2605713,-6722030,-7825889,2,2,2,2
2025-09-03 13:05:14.905,-1538450,-2605696,-6722023,-3631614,2,2,2,2
2025-09-03 13:05:14.907,-1522176,-6808308,-2543882,-7825775,2,2,2,2
2025-09-03 13:05:14.910,-1521420,-6791157,-6737299,-7824915,2,2,2,2
2025-09-03 13:05:14.913,-1537404,-6790436,-4623260,-7807880,2,2,2,2
2025-09-03 13:05:14.916,-1537232,-4693134,-6736637,-7824120,2,2,2,2
2025-09-03 13:05:14.919,-3634581,-6807233,-6720616,-3613940,2,2,2,2
2025-09-03 13:05:14.921,-1521026,-6790665,-2526448,-7824867,2,2,2,2
2025-09-03 13:05:14.924,-1520778,-6790507,-2526211,-7824393,2,2,2,2
2025-09-03 13:05:14.927,-3633808,-6806079,-6719618,-3621112,2,2,2,2
2025-09-03 13:05:14.929,-3633284,-6805557,-6718975,-3620321,2,2,2,2
2025-09-03 13:05:14.932,-1535998,-6789100,-6718860,-7806329,2,2,2,2
2025-09-03 13:05:14.935,-1536207,-6789524,-6735752,-7806723,2,2,2,2
2025-09-03 13:05:14.938,-1536158,-6789418,-4622192,-7807009,2,2,2,2
2025-09-03 13:05:14.941,-1536139,-6789395,-2524945,-7806734,2,2,2,2
2025-09-03 13:05:14.944,-1535245,-2594145,-6718170,-7805582,2,2,2,2
2025-09-03 13:05:14.947,-1518397,-6788096,-2539790,-7805071,2,2,2,2
2025-09-03 13:05:14.949,-3631982,-6804230,-6717795,-3610865,2,2,2,2
2025-09-03 13:05:14.952,-1534977,-6788351,-6734443,-7805594,2,2,2,2
2025-09-03 13:05:14.955,-1535076,-6788578,-6718238,-7805904,2,2,2,2
2025-09-03 13:05:14.957,-1534855,-2601989,-6718002,-7805452,2,2,2,2
2025-09-03 13:05:14.960,-1517881,-6787483,-2523031,-7804885,2,2,2,2
2025-09-03 13:05:14.963,-1517328,-6786706,-6700049,-7803763,2,2,2,2
2025-09-03 13:05:14.965,-1533557,-6786563,-6716280,-7803847,2,2,2,2
2025-09-03 13:05:14.968,-1525609,-6787069,-4619400,-7804114,2,2,2,2
2025-09-03 13:05:14.971,-1533805,-2592670,-6716731,-7804163,2,2,2,2
2025-09-03 13:05:14.974,-1533671,-6803227,-6716660,-3618161,2,2,2,2
2025-09-03 13:05:14.976,-1533171,-2592123,-6716140,-7803551,2,2,2,2
2025-09-03 13:05:14.979,-1524587,-6785770,-4618214,-7802625,2,2,2,2
2025-09-03 13:05:14.982,-1516153,-6785530,-2520806,-7802615,2,2,2,2
2025-09-03 13:05:14.984,-3629808,-6802177,-6715394,-3608473,2,2,2,2
2025-09-03 13:05:14.987,-1516226,-6786043,-2504721,-7802994,2,2,2,2
2025-09-03 13:05:14.990,-1532444,-2591368,-6715355,-7802878,2,2,2,2
2025-09-03 13:05:14.993,-1515424,-6801396,-6714509,-3607651,2,2,2,2
2025-09-03 13:05:14.996,-1514777,-4687205,-6697354,-7801220,2,2,2,2
2025-09-03 13:05:14.999,-1514742,-6784110,-6697359,-7801061,2,2,2,2
2025-09-03 13:05:15.002,-1514857,-6784475,-6713888,-7801343,2,2,2,2
2025-09-03 13:05:15.005,-1514941,-6784406,-2519654,-7801383,2,2,2,2
2025-09-03 13:05:15.007,-3612004,-6800753,-6714095,-3607048,2,2,2,2
2025-09-03 13:05:15.010,-1514081,-6783504,-6713114,-7800502,2,2,2,2
2025-09-03 13:05:15.013,-1513713,-6782949,-6696049,-7799579,2,2,2,2
2025-09-03 13:05:15.016,-1521673,-6782757,-4615151,-7799745,2,2,2,2
2025-09-03 13:05:15.018,-1513526,-6783099,-6696034,-7799958,2,2,2,2
2025-09-03 13:05:15.021,-1513479,-6783208,-2502128,-7800218,2,2,2,2
2025-09-03 13:05:15.023,-1513492,-2588685,-6712592,-7800064,2,2,2,2
2025-09-03 13:05:15.026,-3610134,-6766296,-6712195,-7799558,2,2,2,2
2025-09-03 13:05:15.029,-1512420,-6781669,-2516718,-7798328,2,2,2,2
2025-09-03 13:05:15.032,-1512160,-4684514,-6694586,-7798123,2,2,2,2
2025-09-03 13:05:15.034,-1520499,-6781700,-4613899,-7798296,2,2,2,2
2025-09-03 13:05:15.037,-1512334,-6781980,-2517124,-7798814,2,2,2,2
2025-09-03 13:05:15.040,-1512422,-6781834,-2516973,-7798743,2,2,2,2
2025-09-03 13:05:15.042,-1511940,-6765131,-6710900,-3603939,2,2,2,2
2025-09-03 13:05:15.045,-1511177,-6780655,-6709867,-7797194,2,2,2,2
2025-09-03 13:05:15.048,-1511157,-6780389,-6709515,-7796861,2,2,2,2
2025-09-03 13:05:15.051,-1510974,-6780641,-2507287,-7797243,2,2,2,2
2025-09-03 13:05:15.053,-3608479,-6764340,-6710242,-3603226,2,2,2,2
2025-09-03 13:05:15.056,-3608546,-6764351,-6710038,-7797730,2,2,2,2
2025-09-03 13:05:15.058,-1511150,-6780539,-2507516,-7797307,2,2,2,2
2025-09-03 13:05:15.061,-1510407,-2585445,-6692639,-7796473,2,2,2,2
2025-09-03 13:05:15.064,-1509914,-2585060,-6692037,-7795685,2,2,2,2
2025-09-03 13:05:15.066,-1509732,-6779185,-6691847,-7795595,2,2,2,2
2025-09-03 13:05:15.069,-1509993,-2585201,-6692414,-7796102,2,2,2,2
2025-09-03 13:05:15.072,-3607195,-6763295,-6692466,-7796380,2,2,2,2
2025-09-03 13:05:15.075,-1509871,-6779250,-6692215,-7795941,2,2,2,2
2025-09-03 13:05:15.077,-1509117,-4681231,-6691206,-7794694,2,2,2,2
2025-09-03 13:05:15.080,-1508372,-6777809,-4593381,-7794116,2,2,2,2
2025-09-03 13:05:15.083,-1508366,-2575342,-6690560,-3599901,2,2,2,2
2025-09-03 13:05:15.086,-1508622,-6778113,-2496637,-7794749,2,2,2,2
2025-09-03 13:05:15.088,-1508806,-4681202,-6690865,-7794830,2,2,2,2
2025-09-03 13:05:15.091,-1508402,-2583710,-6690834,-7794534,2,2,2,2
2025-09-03 13:05:15.094,-1508072,-6777325,-2503838,-7793657,2,2,2,2
2025-09-03 13:05:15.096,-3604619,-6760437,-6689404,-7792998,2,2,2,2
2025-09-03 13:05:15.099,-3604453,-6760272,-6689270,-3598572,2,2,2,2
2025-09-03 13:05:15.102,-1507346,-2582668,-6689589,-7793154,2,2,2,2
2025-09-03 13:05:15.105,-1507427,-6776893,-4592487,-7793449,2,2,2,2
2025-09-03 13:05:15.108,-1507458,-6777042,-2495375,-7793345,2,2,2,2
2025-09-03 13:05:15.111,-1506577,-6776072,-2494326,-7792188,2,2,2,2
2025-09-03 13:05:15.113,-1506503,-4678558,-6688184,-7791715,2,2,2,2
2025-09-03 13:05:15.116,-1506310,-4678517,-6688120,-7791636,2,2,2,2
2025-09-03 13:05:15.119,-1506559,-6775908,-2494086,-7792117,2,2,2,2
2025-09-03 13:05:15.121,-3603598,-6759601,-6688511,-3589859,2,2,2,2
2025-09-03 13:05:15.124,-1506250,-4678547,-6688511,-7792109,2,2,2,2
2025-09-03 13:05:15.127,-1505753,-4678040,-6687697,-7791260,2,2,2,2
2025-09-03 13:05:15.129,-1505049,-6757920,-6686878,-7790356,2,2,2,2
2025-09-03 13:05:15.132,-3602169,-6757896,-6686843,-3587825,2,2,2,2
2025-09-03 13:05:15.135,-3602401,-6758079,-6687005,-3596385,2,2,2,2
2025-09-03 13:05:15.137,-1505286,-2564091,-6687432,-7790871,2,2,2,2
2025-09-03 13:05:15.140,-3602420,-6758159,-6687125,-3596644,2,2,2,2
2025-09-03 13:05:15.143,-1504715,-6757648,-2492271,-7773825,2,2,2,2
2025-09-03 13:05:15.146,-1503763,-6756625,-6685644,-7772686,2,2,2,2
2025-09-03 13:05:15.148,-1503788,-6756724,-6685442,-7772516,2,2,2,2
2025-09-03 13:05:15.151,-1503878,-6756987,-6685726,-3586845,2,2,2,2
2025-09-03 13:05:15.154,-1504025,-2562816,-6685961,-7773303,2,2,2,2
2025-09-03 13:05:15.157,-3600917,-6756916,-6685708,-3595142,2,2,2,2
2025-09-03 13:05:15.160,-3600518,-6756277,-6685026,-3594268,2,2,2,2
2025-09-03 13:05:15.162,-1502567,-2569230,-6749725,-7771252,2,2,2,2
2025-09-03 13:05:15.165,-1502441,-6755216,-2555276,-7771097,2,2,2,2
2025-09-03 13:05:15.167,-1502657,-2561271,-6749712,-7771281,2,2,2,2
2025-09-03 13:05:15.170,-1502735,-6755788,-4652812,-7788088,2,2,2,2
2025-09-03 13:05:15.173,-1502477,-4658660,-6750005,-7771767,2,2,2,2
2025-09-03 13:05:15.176,-1493875,-6755125,-4652136,-7787279,2,2,2,2
2025-09-03 13:05:15.179,-1501421,-6754183,-6748420,-3575805,2,2,2,2
2025-09-03 13:05:15.182,-1501409,-6754165,-6748392,-3575455,2,2,2,2
2025-09-03 13:05:15.184,-1501296,-6754235,-6748516,-3575705,2,2,2,2
2025-09-03 13:05:15.187,-1501441,-6754351,-4651541,-7786809,2,2,2,2
2025-09-03 13:05:15.190,-1501248,-6754535,-2554245,-7770317,2,2,2,2
2025-09-03 13:05:15.192,-1501037,-2559602,-6748157,-7769744,2,2,2,2
2025-09-03 13:05:15.195,-3597420,-6753270,-6747386,-3590814,2,2,2,2
2025-09-03 13:05:15.198,-3597061,-6752967,-6746982,-7784957,2,2,2,2
2025-09-03 13:05:15.201,-1500022,-2558611,-6746941,-7768716,2,2,2,2
2025-09-03 13:05:15.203,-1500259,-6753082,-6747266,-7785316,2,2,2,2
2025-09-03 13:05:15.206,-1500169,-6753157,-6747288,-3574668,2,2,2,2
2025-09-03 13:05:15.209,-1491575,-6752828,-4649851,-7784972,2,2,2,2
2025-09-03 13:05:15.211,-1491066,-6752029,-4648843,-7784015,2,2,2,2
2025-09-03 13:05:15.214,-1482481,-6751585,-6745707,-7767281,2,2,2,2
2025-09-03 13:05:15.217,-1482464,-6751626,-6745570,-7767177,2,2,2,2
2025-09-03 13:05:15.219,-1482606,-2557466,-6746071,-7767553,2,2,2,2
2025-09-03 13:05:15.222,-1482441,-2557675,-6745915,-7767570,2,2,2,2
2025-09-03 13:05:15.225,-1498615,-6751741,-2551418,-7767292,2,2,2,2
2025-09-03 13:05:15.228,-3578732,-6750717,-6744828,-3588211,2,2,2,2
2025-09-03 13:05:15.231,-1497614,-6750227,-2541728,-7765767,2,2,2,2
2025-09-03 13:05:15.234,-1481106,-6750245,-6744320,-7749561,2,2,2,2
2025-09-03 13:05:15.236,-1481238,-2556406,-6744814,-7766284,2,2,2,2
2025-09-03 13:05:15.239,-1481365,-2556385,-6744802,-7766304,2,2,2,2
2025-09-03 13:05:15.242,-1497366,-6750232,-6744327,-7765879,2,2,2,2
2025-09-03 13:05:15.245,-1496697,-6749415,-2549004,-7764793,2,2,2,2
2025-09-03 13:05:15.248,-1496336,-6748951,-2548577,-7764274,2,2,2,2
2025-09-03 13:05:15.250,-3577091,-6749142,-6743019,-3553910,2,2,2,2
2025-09-03 13:05:15.253,-3577240,-6749478,-6743521,-7748593,2,2,2,2
2025-09-03 13:05:15.256,-1480094,-6749402,-4646171,-7748478,2,2,2,2
2025-09-03 13:05:15.259,-1479826,-2554736,-6743007,-7764714,2,2,2,2
2025-09-03 13:05:15.261,-1487114,-6748203,-4644880,-7747136,2,2,2,2
2025-09-03 13:05:15.265,-1495143,-6747746,-2530976,-7763145,2,2,2,2
2025-09-03 13:05:15.267,-1478910,-4650877,-6741784,-7763310,2,2,2,2
2025-09-03 13:05:15.270,-1478860,-4651009,-6742004,-7763609,2,2,2,2
2025-09-03 13:05:15.273,-1478780,-2553697,-6725395,-7763481,2,2,2,2
2025-09-03 13:05:15.275,-1494717,-6747673,-2539000,-7763171,2,2,2,2
2025-09-03 13:05:15.278,-3575013,-6746829,-6724108,-3567866,2,2,2,2
2025-09-03 13:05:15.281,-3574557,-6746571,-6723819,-3550834,2,2,2,2
2025-09-03 13:05:15.284,-1477386,-6746398,-6723939,-7745341,2,2,2,2
2025-09-03 13:05:15.286,-1477407,-6746741,-6740670,-7762029,2,2,2,2
2025-09-03 13:05:15.289,-1477528,-2552347,-6724300,-7762041,2,2,2,2
2025-09-03 13:05:15.292,-1477132,-2552201,-6723815,-7761798,2,2,2,2
2025-09-03 13:05:15.295,-1476600,-6745583,-4625789,-7744277,2,2,2,2
2025-09-03 13:05:15.297,-1476294,-6745090,-6738807,-7760361,2,2,2,2
2025-09-03 13:05:15.300,-1476146,-4648052,-6738927,-7760266,2,2,2,2
2025-09-03 13:05:15.303,-1476216,-6745539,-2528537,-7760699,2,2,2,2
2025-09-03 13:05:15.305,-1492372,-6745345,-2536676,-7760431,2,2,2,2
2025-09-03 13:05:15.308,-1476035,-4648186,-6738868,-7760405,2,2,2,2
2025-09-03 13:05:15.311,-1475293,-4647399,-6738170,-7759511,2,2,2,2
2025-09-03 13:05:15.314,-1474665,-2541206,-6720827,-7758745,2,2,2,2
2025-09-03 13:05:15.316,-1474668,-2549510,-6721009,-7758698,2,2,2,2
2025-09-03 13:05:15.319,-3571962,-6744011,-6721168,-7742611,2,2,2,2
2025-09-03 13:05:15.322,-1474696,-6744030,-6721270,-7742748,2,2,2,2
2025-09-03 13:05:15.324,-1474547,-6743827,-6737432,-7758982,2,2,2,2
2025-09-03 13:05:15.327,-1473802,-2540643,-6720244,-3563642,2,2,2,2
2025-09-03 13:05:15.330,-1456976,-6742419,-2541553,-7740832,2,2,2,2
2025-09-03 13:05:15.333,-1473140,-6742257,-2524949,-7740707,2,2,2,2
2025-09-03 13:05:15.335,-1473263,-6742341,-6719641,-3554946,2,2,2,2
2025-09-03 13:05:15.338,-1456786,-6742475,-2525204,-7740954,2,2,2,2
2025-09-03 13:05:15.341,-1472807,-2547835,-6719466,-7740917,2,2,2,2
2025-09-03 13:05:15.344,-3569509,-6741574,-6718569,-3554017,2,2,2,2
2025-09-03 13:05:15.346,-1472041,-4627574,-6734350,-7739379,2,2,2,2
2025-09-03 13:05:15.349,-1455363,-6724451,-2523625,-7739347,2,2,2,2
2025-09-03 13:05:15.351,-3569013,-6741039,-6717972,-3545213,2,2,2,2
2025-09-03 13:05:15.354,-1455572,-6724720,-2540403,-7739671,2,2,2,2
2025-09-03 13:05:15.357,-1471743,-6724591,-6718112,-7739531,2,2,2,2
2025-09-03 13:05:15.360,-1454847,-6723852,-2523030,-7738877,2,2,2,2
2025-09-03 13:05:15.362,-1470585,-6723113,-6716548,-7737847,2,2,2,2
2025-09-03 13:05:15.365,-1470346,-2536825,-6716357,-7737588,2,2,2,2
2025-09-03 13:05:15.368,-1454073,-6722940,-2505626,-7737728,2,2,2,2
2025-09-03 13:05:15.371,-1470237,-6739602,-6716427,-3551873,2,2,2,2
2025-09-03 13:05:15.374,-1453800,-6722936,-2522085,-7737637,2,2,2,2
2025-09-03 13:05:15.376,-1469648,-4625285,-6699408,-7736977,2,2,2,2
2025-09-03 13:05:15.379,-1468935,-2527130,-6714664,-7735936,2,2,2,2
2025-09-03 13:05:15.382,-1468802,-6721306,-6714523,-7735795,2,2,2,2
2025-09-03 13:05:15.385,-1468700,-6721508,-6714740,-7736071,2,2,2,2
2025-09-03 13:05:15.388,-1452487,-6721690,-6698632,-7736216,2,2,2,2
2025-09-03 13:05:15.391,-1460464,-6721312,-2520559,-7736088,2,2,2,2
2025-09-03 13:05:15.393,-1467962,-6720762,-6697549,-7735304,2,2,2,2
2025-09-03 13:05:15.396,-1459353,-6720039,-4615961,-7734328,2,2,2,2
2025-09-03 13:05:15.399,-1467361,-6736179,-6713075,-3539949,2,2,2,2
2025-09-03 13:05:15.401,-1467138,-6719763,-6696693,-7734372,2,2,2,2
2025-09-03 13:05:15.404,-1459101,-6720207,-4616090,-7734729,2,2,2,2
2025-09-03 13:05:15.407,-1467199,-4622739,-6696886,-7734422,2,2,2,2
2025-09-03 13:05:15.410,-1450370,-6719238,-2510057,-7733809,2,2,2,2
2025-09-03 13:05:15.412,-1449829,-6734982,-6711795,-3604117,2,2,2,2
2025-09-03 13:05:15.415,-1449325,-6718260,-6711427,-7798034,2,2,2,2
2025-09-03 13:05:15.418,-1449330,-6718229,-6711408,-7798126,2,2,2,2
2025-09-03 13:05:15.421,-1457765,-6718712,-4614505,-7798513,2,2,2,2
2025-09-03 13:05:15.423,-1449359,-6718524,-4614633,-7798386,2,2,2,2
2025-09-03 13:05:15.426,-1457003,-6717899,-2516626,-7797748,2,2,2,2
2025-09-03 13:05:15.429,-1448064,-6700666,-6710019,-3602306,2,2,2,2
2025-09-03 13:05:15.432,-1447684,-6716657,-2507134,-7796452,2,2,2,2
2025-09-03 13:05:15.435,-1447916,-6716719,-6709776,-7796463,2,2,2,2
2025-09-03 13:05:15.437,-1447801,-6716902,-2507405,-7796714,2,2,2,2
2025-09-03 13:05:15.440,-1447682,-6716812,-2507375,-7796695,2,2,2,2
2025-09-03 13:05:15.443,-1447172,-6716411,-2498681,-7796073,2,2,2,2
2025-09-03 13:05:15.445,-1446543,-2521209,-6691899,-7795081,2,2,2,2
2025-09-03 13:05:15.448,-1446274,-6715130,-2505699,-7794659,2,2,2,2
2025-09-03 13:05:15.450,-3543425,-6698609,-6691682,-3600245,2,2,2,2
2025-09-03 13:05:15.453,-1446292,-6715332,-6691989,-7795070,2,2,2,2
2025-09-03 13:05:15.456,-1454443,-6715335,-4594582,-7794892,2,2,2,2
2025-09-03 13:05:15.459,-1445633,-6698489,-6691310,-3591814,2,2,2,2
2025-09-03 13:05:15.462,-1444999,-6713873,-2496137,-7793187,2,2,2,2
2025-09-03 13:05:15.464,-1444844,-4616446,-6689855,-7792795,2,2,2,2
2025-09-03 13:05:15.467,-1444475,-6713361,-2495605,-7792660,2,2,2,2
2025-09-03 13:05:15.470,-1444751,-2519407,-6690277,-7793181,2,2,2,2
2025-09-03 13:05:15.473,-1444555,-6713501,-2503957,-7793131,2,2,2,2
2025-09-03 13:05:15.475,-3541266,-6696708,-6689567,-3598493,2,2,2,2
2025-09-03 13:05:15.478,-1443407,-6712293,-2494334,-7791615,2,2,2,2
2025-09-03 13:05:15.481,-1443075,-6711798,-4590968,-7791033,2,2,2,2
2025-09-03 13:05:15.484,-1442959,-6711810,-4590974,-7791110,2,2,2,2
2025-09-03 13:05:15.487,-1443094,-6711937,-6688284,-7791460,2,2,2,2
2025-09-03 13:05:15.489,-1442840,-4614897,-6688393,-7791347,2,2,2,2
2025-09-03 13:05:15.492,-1442581,-6711526,-6687818,-7790981,2,2,2,2
2025-09-03 13:05:15.495,-1442028,-4613630,-6686990,-7773559,2,2,2,2
2025-09-03 13:05:15.497,-1506868,-4612867,-6686451,-7772897,2,2,2,2
2025-09-03 13:05:15.500,-1507050,-6710243,-2492301,-7773143,2,2,2,2
2025-09-03 13:05:15.502,-1507028,-6710395,-6686582,-7773190,2,2,2,2
2025-09-03 13:05:15.505,-1507063,-2516066,-6686508,-7773284,2,2,2,2
2025-09-03 13:05:15.508,-1506693,-2515694,-6686442,-7772901,2,2,2,2
2025-09-03 13:05:15.511,-1506042,-6709277,-2491366,-7772149,2,2,2,2
2025-09-03 13:05:15.513,-1505538,-2497910,-6684867,-7771151,2,2,2,2
2025-09-03 13:05:15.516,-1505506,-2497900,-6684733,-7771155,2,2,2,2
2025-09-03 13:05:15.519,-1505530,-2506094,-6684881,-7771296,2,2,2,2
2025-09-03 13:05:15.521,-3602572,-6692568,-6684932,-7787916,2,2,2,2
2025-09-03 13:05:15.534,-1505184,-6692340,-6684701,-7787750,2,2,2,2
2025-09-03 13:05:15.534,-1504516,-2505341,-6683965,-7770495,2,2,2,2
2025-09-03 13:05:15.534,-3601126,-6690618,-6683368,-3591780,2,2,2,2
2025-09-03 13:05:15.534,-3600893,-6690332,-6683040,-7785728,2,2,2,2
2025-09-03 13:05:15.535,-1503646,-6690518,-4585836,-7785731,2,2,2,2
2025-09-03 13:05:15.537,-1503782,-6690810,-2488988,-7769837,2,2,2,2
2025-09-03 13:05:15.541,-1503684,-2496113,-6682897,-7769444,2,2,2,2
2025-09-03 13:05:15.543,-1503211,-4592658,-6682504,-7768929,2,2,2,2
2025-09-03 13:05:15.546,-1502229,-4591993,-6681476,-7767942,2,2,2,2
2025-09-03 13:05:15.548,-1501978,-6688543,-6681112,-7767298,2,2,2,2
2025-09-03 13:05:15.551,-1501896,-6688759,-6681096,-7767302,2,2,2,2
2025-09-03 13:05:15.553,-1501827,-2494357,-6681322,-7767584,2,2,2,2
2025-09-03 13:05:15.556,-1501760,-6688754,-6681099,-7767435,2,2,2,2
2025-09-03 13:05:15.559,-1501666,-6688259,-6680848,-3572879,2,2,2,2
2025-09-03 13:05:15.561,-1492838,-6687726,-4583052,-7782864,2,2,2,2
2025-09-03 13:05:15.564,-1500434,-6687356,-2485498,-7766005,2,2,2,2
2025-09-03 13:05:15.567,-1500472,-2492923,-6679605,-7765880,2,2,2,2
2025-09-03 13:05:15.570,-1500297,-6687006,-2477027,-7765999,2,2,2,2
2025-09-03 13:05:15.573,-1499927,-6686955,-6679143,-7765619,2,2,2,2
2025-09-03 13:05:15.575,-1499670,-6686695,-6678800,-7748882,2,2,2,2
2025-09-03 13:05:15.578,-1499377,-2491676,-6678312,-7764496,2,2,2,2
2025-09-03 13:05:15.581,-1482623,-2491281,-6677970,-3569949,2,2,2,2
2025-09-03 13:05:15.584,-1482349,-6685329,-6677644,-3569685,2,2,2,2
2025-09-03 13:05:15.586,-1482015,-6685409,-4580491,-7747402,2,2,2,2
2025-09-03 13:05:15.589,-1490034,-6685170,-2483089,-7763500,2,2,2,2
2025-09-03 13:05:15.592,-1498118,-6684798,-2482702,-7763419,2,2,2,2
2025-09-03 13:05:15.594,-1481455,-4652800,-6676599,-7762926,2,2,2,2
2025-09-03 13:05:15.597,-1497338,-6749688,-2465568,-7762628,2,2,2,2
2025-09-03 13:05:15.600,-1496847,-6749199,-2465137,-7762129,2,2,2,2
2025-09-03 13:05:15.603,-1496626,-6748788,-2473097,-7761902,2,2,2,2
2025-09-03 13:05:15.605,-3577075,-6748436,-6658918,-7745160,2,2,2,2
2025-09-03 13:05:15.608,-1496080,-6748521,-2472564,-7761345,2,2,2,2
2025-09-03 13:05:15.610,-3576569,-6748112,-6658285,-3558304,2,2,2,2
2025-09-03 13:05:15.613,-1495448,-6747762,-2463508,-7760387,2,2,2,2
2025-09-03 13:05:15.616,-1478917,-2553248,-6657594,-7760226,2,2,2,2
2025-09-03 13:05:15.618,-3575813,-6747344,-6657419,-3549307,2,2,2,2
2025-09-03 13:05:15.621,-1478371,-6747097,-6657123,-7743244,2,2,2,2
2025-09-03 13:05:15.624,-1478025,-6746680,-6657023,-7743134,2,2,2,2
2025-09-03 13:05:15.626,-1494066,-6746352,-2470501,-7759092,2,2,2,2
2025-09-03 13:05:15.629,-1477614,-6745905,-6656133,-7742464,2,2,2,2
2025-09-03 13:05:15.632,-1477136,-6745810,-6655903,-7742007,2,2,2,2
2025-09-03 13:05:15.634,-1493254,-6745482,-2461323,-7758090,2,2,2,2
2025-09-03 13:05:15.637,-3574011,-6745297,-6655364,-7741444,2,2,2,2
2025-09-03 13:05:15.640,-1492991,-6744969,-6671487,-7741423,2,2,2,2
2025-09-03 13:05:15.643,-1476151,-4647674,-6671293,-7740928,2,2,2,2
2025-09-03 13:05:15.646,-3572893,-6744312,-6654332,-3545996,2,2,2,2
2025-09-03 13:05:15.648,-1491739,-6743916,-2459546,-7740139,2,2,2,2
2025-09-03 13:05:15.651,-1475083,-6743651,-6653838,-3553688,2,2,2,2
2025-09-03 13:05:15.654,-3572088,-6743517,-6653447,-7739410,2,2,2,2
2025-09-03 13:05:15.657,-1474575,-6743104,-4555918,-7739323,2,2,2,2
2025-09-03 13:05:15.659,-1457858,-6742771,-2458622,-7738879,2,2,2,2
2025-09-03 13:05:15.662,-1473802,-6742527,-6652407,-7738511,2,2,2,2
2025-09-03 13:05:15.664,-1473674,-2547817,-6651934,-7738086,2,2,2,2
2025-09-03 13:05:15.667,-1473387,-2531097,-6651649,-7737752,2,2,2,2
2025-09-03 13:05:15.670,-1456627,-6725114,-2440847,-7737450,2,2,2,2
2025-09-03 13:05:15.673,-1472666,-6741221,-6650984,-3542779,2,2,2,2
2025-09-03 13:05:15.676,-1472376,-6740810,-6650784,-3542372,2,2,2,2
2025-09-03 13:05:15.678,-1455599,-6723904,-2456045,-7736343,2,2,2,2
2025-09-03 13:05:15.681,-1471541,-4626688,-6633526,-7735924,2,2,2,2
2025-09-03 13:05:15.684,-1471447,-2529055,-6649654,-7735693,2,2,2,2
2025-09-03 13:05:15.686,-1454745,-6723186,-2455167,-7735524,2,2,2,2
2025-09-03 13:05:15.689,-1470939,-4625777,-6632759,-7735178,2,2,2,2
2025-09-03 13:05:15.692,-3567773,-6738989,-6648852,-3540595,2,2,2,2
2025-09-03 13:05:15.695,-1470272,-6722289,-6632056,-7734384,2,2,2,2
2025-09-03 13:05:15.698,-1469927,-4624653,-6631857,-7734132,2,2,2,2
2025-09-03 13:05:15.701,-1469648,-2527468,-6647856,-7733789,2,2,2,2
2025-09-03 13:05:15.703,-1469479,-4624269,-6631174,-7733754,2,2,2,2
2025-09-03 13:05:15.706,-1469126,-4624097,-6630975,-7733268,2,2,2,2
2025-09-03 13:05:15.709,-1468567,-2526454,-6646816,-7732731,2,2,2,2
2025-09-03 13:05:15.711,-1468292,-6736511,-6646499,-3538027,2,2,2,2
2025-09-03 13:05:15.714,-1467806,-6736264,-6645916,-3537419,2,2,2,2
2025-09-03 13:05:15.716,-1459302,-6719510,-4548368,-7731596,2,2,2,2
2025-09-03 13:05:15.719,-1451008,-6719233,-2451185,-7731251,2,2,2,2
2025-09-03 13:05:15.722,-1450612,-6719091,-2450790,-7731161,2,2,2,2
2025-09-03 13:05:15.724,-1466640,-4621586,-6628600,-7730788,2,2,2,2
2025-09-03 13:05:15.727,-1449971,-6718364,-2441829,-7730377,2,2,2,2
2025-09-03 13:05:15.730,-1449592,-6717960,-2441600,-7729861,2,2,2,2
2025-09-03 13:05:15.733,-1449447,-6717546,-6627227,-7729562,2,2,2,2
2025-09-03 13:05:15.735,-1448974,-6717419,-6627100,-7729177,2,2,2,2
2025-09-03 13:05:15.738,-1448966,-6717343,-2440713,-7729154,2,2,2,2
2025-09-03 13:05:15.740,-3545604,-6700472,-6626552,-3534570,2,2,2,2
2025-09-03 13:05:15.743,-1448081,-6716423,-6626057,-7728370,2,2,2,2
2025-09-03 13:05:15.746,-1447917,-2521624,-6625547,-7727772,2,2,2,2
2025-09-03 13:05:15.748,-1447584,-6699270,-6625516,-7727485,2,2,2,2
2025-09-03 13:05:15.751,-1447182,-6715453,-4527897,-7727298,2,2,2,2
2025-09-03 13:05:15.754,-1446924,-2520968,-6624801,-7727087,2,2,2,2
2025-09-03 13:05:15.757,-1454854,-6715073,-4527365,-7726794,2,2,2,2
2025-09-03 13:05:15.760,-1446414,-6714728,-2429923,-7726351,2,2,2,2
2025-09-03 13:05:15.763,-1446008,-6714231,-2429328,-7725816,2,2,2,2
2025-09-03 13:05:15.765,-1445599,-2519450,-6623462,-7725564,2,2,2,2
2025-09-03 13:05:15.768,-1445247,-6713476,-2428824,-7725290,2,2,2,2
2025-09-03 13:05:15.770,-3542031,-6696770,-6622840,-3522444,2,2,2,2
2025-09-03 13:05:15.773,-3541864,-6696523,-6622316,-3530111,2,2,2,2
2025-09-03 13:05:15.776,-1444210,-6712360,-4524565,-7723831,2,2,2,2
2025-09-03 13:05:15.779,-1443705,-6711822,-6621431,-7723446,2,2,2,2
2025-09-03 13:05:15.782,-1443583,-6711756,-2426656,-7706871,2,2,2,2
2025-09-03 13:05:15.785,-1443287,-2517107,-6620673,-7706523,2,2,2,2
2025-09-03 13:05:15.787,-1443034,-4614017,-6620670,-7706261,2,2,2,2
2025-09-03 13:05:15.790,-1442591,-6711035,-2425978,-7705874,2,2,2,2
2025-09-03 13:05:15.793,-1442206,-6710305,-6619784,-7721750,2,2,2,2
2025-09-03 13:05:15.796,-1441949,-2507532,-6619426,-7705234,2,2,2,2
2025-09-03 13:05:15.798,-1441677,-6709999,-6619390,-7721317,2,2,2,2
2025-09-03 13:05:15.801,-1441289,-6709628,-6684537,-7704547,2,2,2,2
2025-09-03 13:05:15.804,-1441135,-6692844,-4586987,-7720457,2,2,2,2
2025-09-03 13:05:15.807,-1440535,-6692552,-2489475,-7703773,2,2,2,2
2025-09-03 13:05:15.809,-1440498,-4594959,-6683342,-7703300,2,2,2,2
2025-09-03 13:05:15.813,-1439750,-6691597,-6682782,-7702925,2,2,2,2
2025-09-03 13:05:15.815,-1439679,-6691217,-2488091,-7702534,2,2,2,2
2025-09-03 13:05:15.818,-1439308,-6691177,-2487968,-7702473,2,2,2,2
2025-09-03 13:05:15.820,-1439231,-4593672,-6682049,-7702048,2,2,2,2
2025-09-03 13:05:15.823,-1438733,-2496017,-6681654,-7701604,2,2,2,2
2025-09-03 13:05:15.826,-1438440,-2504164,-6681345,-7701398,2,2,2,2
2025-09-03 13:05:15.828,-3535245,-6689653,-6680954,-3506678,2,2,2,2
2025-09-03 13:05:15.832,-1437560,-6689289,-2486264,-7700264,2,2,2,2
2025-09-03 13:05:15.834,-1437206,-4591867,-6680254,-7699983,2,2,2,2
2025-09-03 13:05:15.837,-1437079,-6688640,-2485535,-7699931,2,2,2,2
2025-09-03 13:05:15.840,-1436784,-6688278,-2485217,-7699469,2,2,2,2
2025-09-03 13:05:15.842,-1436417,-6688143,-6679065,-3504756,2,2,2,2
2025-09-03 13:05:15.845,-1427835,-6687713,-2484506,-7698709,2,2,2,2
2025-09-03 13:05:15.848,-1435751,-6687291,-6678432,-7681934,2,2,2,2
2025-09-03 13:05:15.851,-1435540,-2492918,-6678035,-7697935,2,2,2,2
2025-09-03 13:05:15.853,-1435248,-6686930,-6677991,-7681515,2,2,2,2
2025-09-03 13:05:15.856,-1426571,-6686450,-4580347,-7681022,2,2,2,2
2025-09-03 13:05:15.859,-1434614,-6685968,-6677012,-7680767,2,2,2,2
2025-09-03 13:05:15.862,-1425799,-6685638,-2482288,-7696388,2,2,2,2
2025-09-03 13:05:15.865,-1433622,-6685187,-2473698,-7695907,2,2,2,2
2025-09-03 13:05:15.867,-1416851,-6684795,-6659344,-3493277,2,2,2,2
2025-09-03 13:05:15.870,-1416465,-2490123,-6659286,-7695458,2,2,2,2
2025-09-03 13:05:15.873,-1432765,-6684311,-2472727,-7695079,2,2,2,2
2025-09-03 13:05:15.875,-1432545,-6684052,-2464258,-7694652,2,2,2,2
2025-09-03 13:05:15.878,-3512683,-6683645,-6658072,-3483516,2,2,2,2
2025-09-03 13:05:15.881,-1415267,-2488819,-6657779,-7693823,2,2,2,2
2025-09-03 13:05:15.883,-3512174,-6682872,-6657523,-7677192,2,2,2,2
2025-09-03 13:05:15.886,-1414803,-6682662,-6657049,-7677045,2,2,2,2
2025-09-03 13:05:15.889,-1414427,-6682356,-4559844,-7676620,2,2,2,2
2025-09-03 13:05:15.892,-1422207,-6681864,-4559361,-7676394,2,2,2,2
2025-09-03 13:05:15.895,-1429859,-6681487,-2461550,-7675658,2,2,2,2
2025-09-03 13:05:15.898,-1413121,-2486549,-6655461,-7675253,2,2,2,2
2025-09-03 13:05:15.900,-1412992,-6680769,-6655333,-3489014,2,2,2,2
2025-09-03 13:05:15.903,-1412633,-2486147,-6654966,-7674757,2,2,2,2
2025-09-03 13:05:15.906,-1412372,-6680263,-6654696,-7674487,2,2,2,2
2025-09-03 13:05:15.908,-3509239,-6679861,-6654317,-3487995,2,2,2,2
2025-09-03 13:05:15.911,-3508854,-6679412,-6653829,-3479283,2,2,2,2
2025-09-03 13:05:15.913,-1427695,-6679200,-2459363,-7673090,2,2,2,2
2025-09-03 13:05:15.916,-1410845,-6678848,-6653204,-3486829,2,2,2,2
2025-09-03 13:05:15.919,-1410561,-6678537,-6652916,-7672592,2,2,2,2
2025-09-03 13:05:15.922,-1410182,-6678076,-4555364,-7672188,2,2,2,2
2025-09-03 13:05:15.924,-1426428,-6677762,-2457757,-7671784,2,2,2,2
2025-09-03 13:05:15.927,-1409767,-6677380,-6635290,-7671298,2,2,2,2
2025-09-03 13:05:15.930,-1409045,-6676966,-4554011,-7671035,2,2,2,2
2025-09-03 13:05:15.933,-1408982,-4579681,-6634701,-7670631,2,2,2,2
2025-09-03 13:05:15.936,-1408649,-2482204,-6650817,-7670301,2,2,2,2
2025-09-03 13:05:15.938,-3505505,-6676216,-6650383,-3475946,2,2,2,2
2025-09-03 13:05:15.941,-3505278,-6675968,-6650125,-7669736,2,2,2,2
2025-09-03 13:05:15.944,-1407513,-6658878,-6649732,-7669250,2,2,2,2
2025-09-03 13:05:15.946,-1390916,-6658689,-2454892,-7668950,2,2,2,2
2025-09-03 13:05:15.949,-1407003,-2472292,-6648848,-3474288,2,2,2,2
