Timestamp,Ch1,Ch2,Ch3,Ch4,Ch5,Ch6,Ch7,Ch8
2025-09-03 13:14:56.351,-487064,-528024,-527659,-559364,2,2,2,2
2025-09-03 13:14:56.352,-487108,-528004,-527674,-559346,2,2,2,2
2025-09-03 13:14:56.352,-486960,-527982,-527620,-559258,2,2,2,2
2025-09-03 13:14:56.352,-487024,-527945,-527615,-559251,2,2,2,2
2025-09-03 13:14:56.352,-470653,-527988,-527624,-559324,2,2,2,2
2025-09-03 13:14:56.352,-478863,-528073,-527644,-575727,2,2,2,2
2025-09-03 13:14:56.352,-487124,-528017,-527648,-559347,2,2,2,2
2025-09-03 13:14:56.352,-470709,-528023,-527716,-559351,2,2,2,2
2025-09-03 13:14:56.352,-487066,-528086,-527714,-575734,2,2,2,2
2025-09-03 13:14:56.352,-470736,-528014,-527642,-559344,2,2,2,2
2025-09-03 13:14:56.353,-487034,-527994,-527617,-559330,2,2,2,2
2025-09-03 13:14:56.353,-486950,-527975,-527599,-559248,2,2,2,2
2025-09-03 13:14:56.353,-486942,-527900,-527592,-575623,2,2,2,2
2025-09-03 13:14:56.354,-487011,-527905,-527593,-575623,2,2,2,2
2025-09-03 13:14:56.354,-486943,-527931,-527587,-559234,2,2,2,2
2025-09-03 13:14:56.354,-486937,-527894,-527518,-559229,2,2,2,2
2025-09-03 13:14:56.354,-470628,-527971,-527593,-559299,2,2,2,2
2025-09-03 13:14:56.355,-487022,-527976,-527601,-559243,2,2,2,2
2025-09-03 13:14:56.355,-486966,-527982,-527609,-559250,2,2,2,2
2025-09-03 13:14:56.355,-478835,-527917,-527612,-575696,2,2,2,2
2025-09-03 13:14:56.355,-486969,-527988,-527618,-559254,2,2,2,2
2025-09-03 13:14:56.356,-487061,-528016,-527639,-575730,2,2,2,2
2025-09-03 13:14:56.356,-487065,-528022,-527640,-559350,2,2,2,2
2025-09-03 13:14:56.356,-487064,-528023,-527641,-559349,2,2,2,2
2025-09-03 13:14:56.357,-470754,-528102,-527715,-559362,2,2,2,2
2025-09-03 13:14:56.357,-487141,-528103,-527718,-575751,2,2,2,2
2025-09-03 13:14:56.357,-487072,-528100,-527714,-575749,2,2,2,2
2025-09-03 13:14:56.357,-470715,-528097,-527647,-559364,2,2,2,2
2025-09-03 13:14:56.358,-487124,-528099,-527677,-559361,2,2,2,2
2025-09-03 13:14:56.358,-470662,-528021,-527636,-559349,2,2,2,2
2025-09-03 13:14:56.358,-470656,-528014,-527631,-559346,2,2,2,2
2025-09-03 13:14:56.358,-487044,-528017,-527634,-559351,2,2,2,2
2025-09-03 13:14:56.359,-487040,-528013,-527633,-559347,2,2,2,2
2025-09-03 13:14:56.359,-486973,-528011,-527629,-559345,2,2,2,2
2025-09-03 13:14:56.359,-486959,-527998,-527613,-559329,2,2,2,2
2025-09-03 13:14:56.359,-487011,-527951,-527599,-559251,2,2,2,2
2025-09-03 13:14:56.360,-487019,-527928,-527611,-575647,2,2,2,2
2025-09-03 13:14:56.360,-478835,-527931,-527622,-575682,2,2,2,2
2025-09-03 13:14:56.360,-487027,-527928,-527620,-575678,2,2,2,2
2025-09-03 13:14:56.360,-486949,-527972,-527604,-559245,2,2,2,2
2025-09-03 13:14:56.361,-486940,-527899,-527598,-559235,2,2,2,2
2025-09-03 13:14:56.361,-470541,-527886,-527520,-559219,2,2,2,2
2025-09-03 13:14:56.361,-470544,-527890,-527518,-559224,2,2,2,2
2025-09-03 13:14:56.361,-486933,-527898,-527520,-559231,2,2,2,2
2025-09-03 13:14:56.362,-487010,-527978,-527591,-559239,2,2,2,2
2025-09-03 13:14:56.362,-487016,-527984,-527595,-559244,2,2,2,2
2025-09-03 13:14:56.362,-487014,-527920,-527594,-575627,2,2,2,2
2025-09-03 13:14:56.363,-487016,-527923,-527595,-575624,2,2,2,2
2025-09-03 13:14:56.363,-470631,-527988,-527596,-559304,2,2,2,2
2025-09-03 13:14:56.363,-487016,-527990,-527598,-559243,2,2,2,2
2025-09-03 13:14:56.363,-470630,-527988,-527597,-559310,2,2,2,2
2025-09-03 13:14:56.364,-470599,-527990,-527602,-559255,2,2,2,2
2025-09-03 13:14:56.364,-486957,-527998,-527613,-559331,2,2,2,2
2025-09-03 13:14:56.364,-486969,-528005,-527622,-559340,2,2,2,2
2025-09-03 13:14:56.364,-487112,-528017,-527631,-559350,2,2,2,2
2025-09-03 13:14:56.365,-487048,-528049,-527631,-575729,2,2,2,2
2025-09-03 13:14:56.365,-487053,-528019,-527631,-559341,2,2,2,2
2025-09-03 13:14:56.365,-487054,-528021,-527635,-559342,2,2,2,2
2025-09-03 13:14:56.366,-470661,-528014,-527625,-559339,2,2,2,2
2025-09-03 13:14:56.366,-487036,-528074,-527620,-575716,2,2,2,2
2025-09-03 13:14:56.366,-487025,-527932,-527610,-575642,2,2,2,2
2025-09-03 13:14:56.366,-470574,-527996,-527607,-559258,2,2,2,2
2025-09-03 13:14:56.367,-486951,-527990,-527605,-559256,2,2,2,2
2025-09-03 13:14:56.367,-486960,-528001,-527616,-559330,2,2,2,2
2025-09-03 13:14:56.367,-470640,-527999,-527617,-559328,2,2,2,2
2025-09-03 13:14:56.367,-487009,-527985,-527607,-559250,2,2,2,2
2025-09-03 13:14:56.368,-486926,-527903,-527591,-559232,2,2,2,2
2025-09-03 13:14:56.368,-486902,-527878,-527505,-559210,2,2,2,2
2025-09-03 13:14:56.368,-486921,-527897,-527520,-559224,2,2,2,2
2025-09-03 13:14:56.368,-470539,-527901,-527589,-559159,2,2,2,2
2025-09-03 13:14:56.369,-470526,-527882,-527508,-559144,2,2,2,2
2025-09-03 13:14:56.369,-478714,-527878,-527504,-575524,2,2,2,2
2025-09-03 13:14:56.369,-478713,-527878,-527502,-575554,2,2,2,2
2025-09-03 13:14:56.369,-470525,-527877,-527501,-559137,2,2,2,2
2025-09-03 13:14:56.370,-486917,-527885,-527570,-559207,2,2,2,2
2025-09-03 13:14:56.370,-470535,-527891,-527507,-559209,2,2,2,2
2025-09-03 13:14:56.370,-470577,-527903,-527518,-559221,2,2,2,2
2025-09-03 13:14:56.371,-487009,-527975,-527594,-559233,2,2,2,2
2025-09-03 13:14:56.371,-487015,-527982,-527606,-559241,2,2,2,2
2025-09-03 13:14:56.371,-487019,-527987,-527609,-559248,2,2,2,2
2025-09-03 13:14:56.371,-487017,-527984,-527606,-559245,2,2,2,2
2025-09-03 13:14:56.372,-478835,-527932,-527614,-575668,2,2,2,2
2025-09-03 13:14:56.372,-470653,-528007,-527621,-559329,2,2,2,2
2025-09-03 13:14:56.372,-487049,-528052,-527632,-559342,2,2,2,2
2025-09-03 13:14:56.372,-470660,-528013,-527626,-559338,2,2,2,2
2025-09-03 13:14:56.373,-470591,-528007,-527619,-559332,2,2,2,2
2025-09-03 13:14:56.373,-486966,-527998,-527612,-559259,2,2,2,2
2025-09-03 13:14:56.373,-486964,-527999,-527618,-559259,2,2,2,2
2025-09-03 13:14:56.373,-486961,-528000,-527615,-559260,2,2,2,2
2025-09-03 13:14:56.374,-487026,-527935,-527618,-575642,2,2,2,2
2025-09-03 13:14:56.375,-470637,-527994,-527612,-559329,2,2,2,2
2025-09-03 13:14:56.375,-486943,-527916,-527599,-575633,2,2,2,2
2025-09-03 13:14:56.375,-486931,-527901,-527585,-575618,2,2,2,2
2025-09-03 13:14:56.375,-470537,-527892,-527509,-559222,2,2,2,2
2025-09-03 13:14:56.376,-486923,-527889,-527537,-559220,2,2,2,2
2025-09-03 13:14:56.376,-470577,-527898,-527513,-559163,2,2,2,2
2025-09-03 13:14:56.376,-470543,-527901,-527515,-559163,2,2,2,2
2025-09-03 13:14:56.376,-470578,-527904,-527516,-559228,2,2,2,2
2025-09-03 13:14:56.377,-486949,-527983,-527609,-559246,2,2,2,2
2025-09-03 13:14:56.377,-486966,-528001,-527626,-559261,2,2,2,2
2025-09-03 13:14:56.377,-487029,-528000,-527626,-575645,2,2,2,2
2025-09-03 13:14:56.378,-487025,-527934,-527620,-575645,2,2,2,2
2025-09-03 13:14:56.378,-470686,-528110,-527724,-559368,2,2,2,2
2025-09-03 13:14:56.379,-470761,-528120,-527738,-559376,2,2,2,2
2025-09-03 13:14:56.379,-470761,-528119,-527740,-559376,2,2,2,2
2025-09-03 13:14:56.379,-487072,-528111,-527730,-575751,2,2,2,2
2025-09-03 13:14:56.379,-487130,-528105,-527690,-559366,2,2,2,2
2025-09-03 13:14:56.380,-487128,-528101,-527655,-559362,2,2,2,2
2025-09-03 13:14:56.380,-487067,-528099,-527659,-559367,2,2,2,2
2025-09-03 13:14:56.380,-487155,-528123,-527811,-559387,2,2,2,2
2025-09-03 13:14:56.380,-486923,-527892,-527770,-575858,2,2,2,2
2025-09-03 13:14:56.381,-478739,-527905,-527843,-575804,2,2,2,2
2025-09-03 13:14:56.381,-486937,-527940,-527850,-575874,2,2,2,2
2025-09-03 13:14:56.381,-487014,-527949,-527861,-575886,2,2,2,2
2025-09-03 13:14:56.381,-487027,-527923,-527870,-575896,2,2,2,2
2025-09-03 13:14:56.382,-470581,-527986,-527870,-559511,2,2,2,2
2025-09-03 13:14:56.382,-470644,-527985,-527871,-559574,2,2,2,2
2025-09-03 13:14:56.382,-470653,-527933,-527626,-559582,2,2,2,2
2025-09-03 13:14:56.382,-487120,-528016,-527644,-559601,2,2,2,2
2025-09-03 13:14:56.383,-487060,-528017,-527646,-559604,2,2,2,2
2025-09-03 13:14:56.383,-478869,-528090,-527647,-559601,2,2,2,2
2025-09-03 13:14:56.384,-470684,-528100,-527718,-559610,2,2,2,2
2025-09-03 13:14:56.384,-487057,-528086,-527643,-575986,2,2,2,2
2025-09-03 13:14:56.384,-487036,-528067,-527623,-575936,2,2,2,2
2025-09-03 13:14:56.384,-478848,-528070,-527623,-575940,2,2,2,2
2025-09-03 13:14:56.385,-487111,-528015,-527631,-559595,2,2,2,2
2025-09-03 13:14:56.385,-470709,-528030,-527643,-559609,2,2,2,2
2025-09-03 13:14:56.385,-470729,-528118,-527729,-559374,2,2,2,2
2025-09-03 13:14:56.385,-470779,-528135,-527750,-559390,2,2,2,2
2025-09-03 13:14:56.386,-487195,-528160,-527839,-559480,2,2,2,2
2025-09-03 13:14:56.386,-487184,-528152,-527826,-559470,2,2,2,2
2025-09-03 13:14:56.386,-487174,-528140,-527816,-559460,2,2,2,2
2025-09-03 13:14:56.387,-487164,-528129,-527745,-575800,2,2,2,2
2025-09-03 13:14:56.387,-478959,-528118,-527734,-559371,2,2,2,2
2025-09-03 13:14:56.387,-470766,-528114,-527734,-559367,2,2,2,2
2025-09-03 13:14:56.388,-470772,-528116,-527740,-559375,2,2,2,2
2025-09-03 13:14:56.388,-487158,-528116,-527741,-559373,2,2,2,2
2025-09-03 13:14:56.388,-470793,-528132,-527758,-559389,2,2,2,2
2025-09-03 13:14:56.388,-487194,-528151,-527811,-559472,2,2,2,2
2025-09-03 13:14:56.389,-487185,-528178,-527772,-559466,2,2,2,2
2025-09-03 13:14:56.389,-487188,-528148,-527836,-559466,2,2,2,2
2025-09-03 13:14:56.389,-487192,-528151,-527841,-559472,2,2,2,2
2025-09-03 13:14:56.390,-479004,-528156,-527846,-575799,2,2,2,2
2025-09-03 13:14:56.390,-470882,-528225,-527850,-559553,2,2,2,2
2025-09-03 13:14:56.390,-487266,-528191,-527849,-575873,2,2,2,2
2025-09-03 13:14:56.390,-470841,-528152,-527776,-559419,2,2,2,2
2025-09-03 13:14:56.391,-487199,-528157,-527848,-559487,2,2,2,2
2025-09-03 13:14:56.391,-470882,-528157,-527848,-559423,2,2,2,2
2025-09-03 13:14:56.391,-470810,-528148,-527844,-559414,2,2,2,2
2025-09-03 13:14:56.391,-470882,-528159,-527857,-559423,2,2,2,2
2025-09-03 13:14:56.392,-487193,-528148,-527845,-575866,2,2,2,2
2025-09-03 13:14:56.392,-487191,-528152,-527841,-559484,2,2,2,2
2025-09-03 13:14:56.393,-470791,-528143,-527766,-559405,2,2,2,2
2025-09-03 13:14:56.393,-487156,-528124,-527744,-575802,2,2,2,2
2025-09-03 13:14:56.393,-487147,-528117,-527672,-559379,2,2,2,2
2025-09-03 13:14:56.393,-478957,-528117,-527739,-575762,2,2,2,2
2025-09-03 13:14:56.394,-487142,-528108,-527694,-559368,2,2,2,2
2025-09-03 13:14:56.394,-487048,-528014,-527636,-559595,2,2,2,2
2025-09-03 13:14:56.394,-470591,-527979,-527861,-559561,2,2,2,2
2025-09-03 13:14:56.394,-470533,-527895,-527843,-559473,2,2,2,2
2025-09-03 13:14:56.395,-478725,-527895,-527842,-575824,2,2,2,2
2025-09-03 13:14:56.395,-486918,-527924,-527774,-559471,2,2,2,2
2025-09-03 13:14:56.395,-486918,-527921,-527774,-559470,2,2,2,2
2025-09-03 13:14:56.395,-486917,-527889,-527774,-575852,2,2,2,2
2025-09-03 13:14:56.396,-470777,-527876,-527759,-559457,2,2,2,2
2025-09-03 13:14:56.396,-478952,-528114,-527744,-559378,2,2,2,2
2025-09-03 13:14:56.396,-487067,-528099,-527728,-559361,2,2,2,2
2025-09-03 13:14:56.396,-470679,-528030,-527719,-559358,2,2,2,2
2025-09-03 13:14:56.397,-487065,-528032,-527657,-559364,2,2,2,2
2025-09-03 13:14:56.397,-487129,-528097,-527729,-559364,2,2,2,2
2025-09-03 13:14:56.397,-487132,-528100,-527735,-559368,2,2,2,2
2025-09-03 13:14:56.398,-487149,-528118,-527751,-559381,2,2,2,2
2025-09-03 13:14:56.398,-486921,-527889,-527839,-559470,2,2,2,2
2025-09-03 13:14:56.398,-486924,-527892,-527839,-559473,2,2,2,2
2025-09-03 13:14:56.398,-486930,-527898,-527843,-575859,2,2,2,2
2025-09-03 13:14:56.399,-486939,-527970,-527817,-559481,2,2,2,2
2025-09-03 13:14:56.399,-486940,-527908,-527853,-575868,2,2,2,2
2025-09-03 13:14:56.399,-486942,-527906,-527853,-575870,2,2,2,2
2025-09-03 13:14:56.399,-470586,-527902,-527851,-559481,2,2,2,2
2025-09-03 13:14:56.400,-470558,-527973,-527853,-559421,2,2,2,2
2025-09-03 13:14:56.400,-470554,-527969,-527848,-559417,2,2,2,2
2025-09-03 13:14:56.400,-486938,-527902,-527846,-559481,2,2,2,2
2025-09-03 13:14:56.401,-487014,-527915,-527859,-575877,2,2,2,2
2025-09-03 13:14:56.401,-478819,-527915,-527863,-575944,2,2,2,2
2025-09-03 13:14:56.401,-487043,-528013,-527641,-559595,2,2,2,2
2025-09-03 13:14:56.402,-470673,-528026,-527718,-559612,2,2,2,2
2025-09-03 13:14:56.402,-470731,-528015,-527646,-559600,2,2,2,2
2025-09-03 13:14:56.402,-487040,-528065,-527636,-575938,2,2,2,2
2025-09-03 13:14:56.402,-486973,-527998,-527665,-559520,2,2,2,2
2025-09-03 13:14:56.403,-487038,-527996,-527636,-559586,2,2,2,2
2025-09-03 13:14:56.403,-487040,-527999,-527638,-559587,2,2,2,2
2025-09-03 13:14:56.403,-470657,-528002,-527636,-559589,2,2,2,2
2025-09-03 13:14:56.403,-487030,-527991,-527628,-559513,2,2,2,2
2025-09-03 13:14:56.404,-478822,-527912,-527870,-575946,2,2,2,2
2025-09-03 13:14:56.404,-487023,-527986,-527624,-575892,2,2,2,2
2025-09-03 13:14:56.404,-486964,-527989,-527626,-559517,2,2,2,2
2025-09-03 13:14:56.404,-487025,-527923,-527622,-575898,2,2,2,2
2025-09-03 13:14:56.405,-470582,-527989,-527627,-559585,2,2,2,2
2025-09-03 13:14:56.405,-470647,-527992,-527632,-559588,2,2,2,2
2025-09-03 13:14:56.405,-487031,-527995,-527628,-559587,2,2,2,2
2025-09-03 13:14:56.405,-470651,-527999,-527630,-559588,2,2,2,2
2025-09-03 13:14:56.406,-487039,-528006,-527634,-559591,2,2,2,2
2025-09-03 13:14:56.406,-486972,-528004,-527629,-559588,2,2,2,2
2025-09-03 13:14:56.406,-486960,-527997,-527618,-559513,2,2,2,2
2025-09-03 13:14:56.406,-487024,-527996,-527617,-559509,2,2,2,2
2025-09-03 13:14:56.407,-470635,-527991,-527871,-559572,2,2,2,2
2025-09-03 13:14:56.407,-487022,-527995,-527618,-559509,2,2,2,2
2025-09-03 13:14:56.407,-487028,-528003,-527627,-559513,2,2,2,2
2025-09-03 13:14:56.407,-478831,-527932,-527620,-575921,2,2,2,2
2025-09-03 13:14:56.408,-486945,-527979,-527860,-559487,2,2,2,2
2025-09-03 13:14:56.408,-486928,-527898,-527846,-575855,2,2,2,2
2025-09-03 13:14:56.408,-486922,-527889,-527775,-575849,2,2,2,2
2025-09-03 13:14:56.408,-470778,-528127,-527759,-559383,2,2,2,2
2025-09-03 13:14:56.409,-487142,-528106,-527680,-559368,2,2,2,2
2025-09-03 13:14:56.409,-470755,-528104,-527740,-559368,2,2,2,2
2025-09-03 13:14:56.409,-487144,-528110,-527679,-559373,2,2,2,2
2025-09-03 13:14:56.410,-470719,-528100,-527733,-559363,2,2,2,2
2025-09-03 13:14:56.410,-487055,-528022,-527720,-559349,2,2,2,2
2025-09-03 13:14:56.410,-487062,-528032,-527731,-559356,2,2,2,2
2025-09-03 13:14:56.410,-470688,-528107,-527739,-559364,2,2,2,2
2025-09-03 13:14:56.411,-487142,-528110,-527678,-559369,2,2,2,2
2025-09-03 13:14:56.411,-478878,-528105,-527734,-575744,2,2,2,2
2025-09-03 13:14:56.411,-487061,-528097,-527730,-575739,2,2,2,2
2025-09-03 13:14:56.411,-487120,-528029,-527693,-559352,2,2,2,2
2025-09-03 13:14:56.412,-487060,-528070,-527732,-559356,2,2,2,2
2025-09-03 13:14:56.412,-470706,-528107,-527734,-559355,2,2,2,2
2025-09-03 13:14:56.412,-470706,-528102,-527733,-559351,2,2,2,2
2025-09-03 13:14:56.413,-478872,-528099,-527731,-575742,2,2,2,2
2025-09-03 13:14:56.413,-487070,-528072,-527736,-575750,2,2,2,2
2025-09-03 13:14:56.413,-487137,-528107,-527674,-559365,2,2,2,2
2025-09-03 13:14:56.413,-487072,-528106,-527736,-575752,2,2,2,2
2025-09-03 13:14:56.414,-487137,-528104,-527732,-559367,2,2,2,2
2025-09-03 13:14:56.414,-470678,-528029,-527720,-559355,2,2,2,2
2025-09-03 13:14:56.414,-470659,-528012,-527640,-559338,2,2,2,2
2025-09-03 13:14:56.414,-486967,-528002,-527630,-559264,2,2,2,2
2025-09-03 13:14:56.415,-487042,-528076,-527642,-575725,2,2,2,2
2025-09-03 13:14:56.415,-486976,-528015,-527674,-559348,2,2,2,2
2025-09-03 13:14:56.415,-486972,-528012,-527673,-559346,2,2,2,2
2025-09-03 13:14:56.415,-487036,-528014,-527644,-559346,2,2,2,2
2025-09-03 13:14:56.416,-470663,-528024,-527717,-559353,2,2,2,2
2025-09-03 13:14:56.416,-487056,-528099,-527661,-559357,2,2,2,2
2025-09-03 13:14:56.416,-487063,-528105,-527668,-559361,2,2,2,2
2025-09-03 13:14:56.416,-478880,-528112,-527741,-575754,2,2,2,2
2025-09-03 13:14:56.417,-487142,-528114,-527747,-559377,2,2,2,2
2025-09-03 13:14:56.417,-470725,-528117,-527752,-559378,2,2,2,2
2025-09-03 13:14:56.417,-487142,-528114,-527745,-575758,2,2,2,2
2025-09-03 13:14:56.417,-470751,-528106,-527738,-559366,2,2,2,2
2025-09-03 13:14:56.418,-486976,-528017,-527646,-559341,2,2,2,2
2025-09-03 13:14:56.418,-486967,-528008,-527638,-559331,2,2,2,2
2025-09-03 13:14:56.418,-487036,-528074,-527641,-575717,2,2,2,2
2025-09-03 13:14:56.419,-470588,-528012,-527642,-559336,2,2,2,2
2025-09-03 13:14:56.419,-487044,-528019,-527718,-559338,2,2,2,2
2025-09-03 13:14:56.419,-487045,-528021,-527719,-559340,2,2,2,2
2025-09-03 13:14:56.419,-470645,-528010,-527644,-559327,2,2,2,2
2025-09-03 13:14:56.420,-487031,-528009,-527644,-559262,2,2,2,2
2025-09-03 13:14:56.420,-487108,-528018,-527720,-559335,2,2,2,2
2025-09-03 13:14:56.420,-478857,-528088,-527726,-575696,2,2,2,2
2025-09-03 13:14:56.420,-487120,-528032,-527731,-559351,2,2,2,2
2025-09-03 13:14:56.421,-487137,-528079,-527749,-559365,2,2,2,2
2025-09-03 13:14:56.421,-487151,-528126,-527828,-559379,2,2,2,2
2025-09-03 13:14:56.421,-470784,-527882,-527842,-559458,2,2,2,2
2025-09-03 13:14:56.421,-486927,-527894,-527855,-575823,2,2,2,2
2025-09-03 13:14:56.422,-486935,-527900,-527866,-559482,2,2,2,2
2025-09-03 13:14:56.422,-486932,-527901,-527863,-575868,2,2,2,2
2025-09-03 13:14:56.422,-486929,-527897,-527858,-575864,2,2,2,2
2025-09-03 13:14:56.422,-470781,-527877,-527776,-559462,2,2,2,2
2025-09-03 13:14:56.423,-470777,-527875,-527770,-559395,2,2,2,2
2025-09-03 13:14:56.423,-470534,-527885,-527845,-559406,2,2,2,2
2025-09-03 13:14:56.423,-486934,-527902,-527861,-559488,2,2,2,2
2025-09-03 13:14:56.424,-486942,-527911,-527868,-575876,2,2,2,2
2025-09-03 13:14:56.424,-486937,-527903,-527860,-559480,2,2,2,2
2025-09-03 13:14:56.424,-486938,-527940,-527866,-559486,2,2,2,2
2025-09-03 13:14:56.425,-486943,-527982,-527870,-559492,2,2,2,2
2025-09-03 13:14:56.425,-486929,-527903,-527857,-575861,2,2,2,2
2025-09-03 13:14:56.425,-487167,-527885,-527841,-575810,2,2,2,2
2025-09-03 13:14:56.425,-487156,-527874,-527796,-559387,2,2,2,2
2025-09-03 13:14:56.426,-487149,-528121,-527759,-559380,2,2,2,2
2025-09-03 13:14:56.426,-470721,-528111,-527753,-559371,2,2,2,2
2025-09-03 13:14:56.426,-470715,-528107,-527749,-559367,2,2,2,2
2025-09-03 13:14:56.426,-487064,-528104,-527812,-559364,2,2,2,2
2025-09-03 13:14:56.427,-478872,-528104,-527747,-575750,2,2,2,2
2025-09-03 13:14:56.427,-487063,-528063,-527742,-575747,2,2,2,2
2025-09-03 13:14:56.427,-487138,-528104,-527817,-559375,2,2,2,2
2025-09-03 13:14:56.427,-487137,-528103,-527752,-575758,2,2,2,2
2025-09-03 13:14:56.428,-470744,-528030,-527746,-559367,2,2,2,2
2025-09-03 13:14:56.428,-470666,-528021,-527736,-559357,2,2,2,2
2025-09-03 13:14:56.428,-470643,-528001,-527647,-559332,2,2,2,2
2025-09-03 13:14:56.428,-486935,-527973,-527618,-559234,2,2,2,2
2025-09-03 13:14:56.429,-486918,-527888,-527604,-575601,2,2,2,2
2025-09-03 13:14:56.429,-486920,-527891,-527605,-559223,2,2,2,2
2025-09-03 13:14:56.429,-486900,-527875,-527556,-559209,2,2,2,2
2025-09-03 13:14:56.429,-486882,-527858,-527510,-559127,2,2,2,2
2025-09-03 13:14:56.430,-470426,-527848,-527500,-559116,2,2,2,2
2025-09-03 13:14:56.430,-486809,-527850,-527568,-559118,2,2,2,2
2025-09-03 13:14:56.430,-486882,-527863,-527578,-559128,2,2,2,2
2025-09-03 13:14:56.430,-478701,-527873,-527589,-575555,2,2,2,2
2025-09-03 13:14:56.431,-486899,-527880,-527565,-559210,2,2,2,2
2025-09-03 13:14:56.431,-470527,-527896,-527608,-559155,2,2,2,2
2025-09-03 13:14:56.431,-486933,-527919,-527628,-575624,2,2,2,2
2025-09-03 13:14:56.431,-470566,-528002,-527645,-559254,2,2,2,2
2025-09-03 13:14:56.432,-487116,-528098,-527678,-559356,2,2,2,2
2025-09-03 13:14:56.432,-487136,-528118,-527826,-559373,2,2,2,2
2025-09-03 13:14:56.432,-487155,-527877,-527776,-575775,2,2,2,2
2025-09-03 13:14:56.433,-470773,-527875,-527775,-559457,2,2,2,2
2025-09-03 13:14:56.433,-487162,-527880,-527844,-559459,2,2,2,2
2025-09-03 13:14:56.433,-486926,-527901,-527861,-559478,2,2,2,2
2025-09-03 13:14:56.433,-470543,-527969,-527860,-559417,2,2,2,2
2025-09-03 13:14:56.434,-486931,-527973,-527864,-559487,2,2,2,2
2025-09-03 13:14:56.434,-478734,-527902,-527856,-575863,2,2,2,2
2025-09-03 13:14:56.434,-478724,-527893,-527848,-575821,2,2,2,2
2025-09-03 13:14:56.434,-487158,-527879,-527805,-559458,2,2,2,2
2025-09-03 13:14:56.435,-487149,-528122,-527762,-559381,2,2,2,2
2025-09-03 13:14:56.435,-487065,-528103,-527810,-559364,2,2,2,2
2025-09-03 13:14:56.435,-470705,-528097,-527739,-559356,2,2,2,2
2025-09-03 13:14:56.436,-478861,-528083,-527727,-575731,2,2,2,2
2025-09-03 13:14:56.436,-487061,-528057,-527732,-575737,2,2,2,2
2025-09-03 13:14:56.436,-487057,-528059,-527727,-575735,2,2,2,2
2025-09-03 13:14:56.436,-470666,-528021,-527722,-559345,2,2,2,2
2025-09-03 13:14:56.437,-487052,-528016,-527657,-559344,2,2,2,2
2025-09-03 13:14:56.437,-470668,-528017,-527721,-559346,2,2,2,2
2025-09-03 13:14:56.437,-470672,-528023,-527724,-559349,2,2,2,2
2025-09-03 13:14:56.437,-487105,-528012,-527653,-559341,2,2,2,2
2025-09-03 13:14:56.438,-487037,-528077,-527716,-575720,2,2,2,2
2025-09-03 13:14:56.438,-486972,-528011,-527680,-559332,2,2,2,2
2025-09-03 13:14:56.438,-486958,-527996,-527668,-559253,2,2,2,2
2025-09-03 13:14:56.438,-487014,-527986,-527630,-559243,2,2,2,2
2025-09-03 13:14:56.439,-470627,-527985,-527630,-559307,2,2,2,2
2025-09-03 13:14:56.439,-487009,-527920,-527627,-575625,2,2,2,2
2025-09-03 13:14:56.439,-487013,-527988,-527630,-559243,2,2,2,2
2025-09-03 13:14:56.439,-478817,-527922,-527626,-575688,2,2,2,2
2025-09-03 13:14:56.440,-486943,-527985,-527623,-559240,2,2,2,2
2025-09-03 13:14:56.440,-470592,-527988,-527629,-559310,2,2,2,2
2025-09-03 13:14:56.440,-470600,-527997,-527639,-559320,2,2,2,2
2025-09-03 13:14:56.440,-487046,-528024,-527665,-559346,2,2,2,2
2025-09-03 13:14:56.441,-478866,-528101,-527744,-575739,2,2,2,2
2025-09-03 13:14:56.441,-487125,-528105,-527813,-559359,2,2,2,2
2025-09-03 13:14:56.441,-487132,-528111,-527822,-559367,2,2,2,2
2025-09-03 13:14:56.441,-487141,-528115,-527764,-575758,2,2,2,2
2025-09-03 13:14:56.442,-470769,-528127,-527774,-559386,2,2,2,2
2025-09-03 13:14:56.442,-487166,-527882,-527848,-559462,2,2,2,2
2025-09-03 13:14:56.442,-487165,-527885,-527848,-559461,2,2,2,2
2025-09-03 13:14:56.442,-470532,-527891,-527854,-559402,2,2,2,2
2025-09-03 13:14:56.443,-470541,-527902,-527861,-559411,2,2,2,2
2025-09-03 13:14:56.443,-478723,-527892,-527849,-575785,2,2,2,2
2025-09-03 13:14:56.443,-478951,-528124,-527761,-575764,2,2,2,2
2025-09-03 13:14:56.443,-487139,-528120,-527758,-559377,2,2,2,2
2025-09-03 13:14:56.444,-487145,-528125,-527763,-559383,2,2,2,2
2025-09-03 13:14:56.444,-487148,-528128,-527828,-559388,2,2,2,2
2025-09-03 13:14:56.444,-470766,-527877,-527766,-559390,2,2,2,2
2025-09-03 13:14:56.445,-478953,-527876,-527764,-559389,2,2,2,2
2025-09-03 13:14:56.445,-487164,-527894,-527843,-575851,2,2,2,2
2025-09-03 13:14:56.445,-486913,-527898,-527843,-575855,2,2,2,2
2025-09-03 13:14:56.445,-470538,-527972,-527855,-559482,2,2,2,2
2025-09-03 13:14:56.446,-470634,-528000,-527631,-559577,2,2,2,2
2025-09-03 13:14:56.446,-470652,-528015,-527647,-559588,2,2,2,2
2025-09-03 13:14:56.446,-487038,-528019,-527651,-559593,2,2,2,2
2025-09-03 13:14:56.447,-487039,-528085,-527717,-575978,2,2,2,2
2025-09-03 13:14:56.447,-486968,-528010,-527674,-559586,2,2,2,2
2025-09-03 13:14:56.447,-486952,-527995,-527631,-559509,2,2,2,2
2025-09-03 13:14:56.447,-486931,-527941,-527868,-559489,2,2,2,2
2025-09-03 13:14:56.448,-470542,-527904,-527867,-559418,2,2,2,2
2025-09-03 13:14:56.448,-486937,-527912,-527621,-575876,2,2,2,2
2025-09-03 13:14:56.448,-478831,-527926,-527634,-575954,2,2,2,2
2025-09-03 13:14:56.449,-486966,-527996,-527640,-559511,2,2,2,2
2025-09-03 13:14:56.449,-470661,-528009,-527719,-559589,2,2,2,2
2025-09-03 13:14:56.449,-470713,-528031,-527741,-559610,2,2,2,2
2025-09-03 13:14:56.449,-487148,-528118,-527827,-559377,2,2,2,2
2025-09-03 13:14:56.450,-478969,-528134,-527841,-575771,2,2,2,2
2025-09-03 13:14:56.450,-487173,-528149,-527856,-559469,2,2,2,2
2025-09-03 13:14:56.450,-487190,-528233,-527873,-559491,2,2,2,2
2025-09-03 13:14:56.450,-487267,-528180,-527880,-575885,2,2,2,2
2025-09-03 13:14:56.451,-470828,-528251,-527888,-559510,2,2,2,2
2025-09-03 13:14:56.451,-487289,-528263,-527897,-559585,2,2,2,2
2025-09-03 13:14:56.451,-487310,-528313,-527981,-559605,2,2,2,2
2025-09-03 13:14:56.451,-470930,-528281,-527986,-559610,2,2,2,2
2025-09-03 13:14:56.452,-487304,-528265,-527911,-559595,2,2,2,2
2025-09-03 13:14:56.452,-487211,-528237,-527882,-559502,2,2,2,2
2025-09-03 13:14:56.452,-479000,-528152,-527858,-575803,2,2,2,2
2025-09-03 13:14:56.452,-487180,-528140,-527816,-559471,2,2,2,2
2025-09-03 13:14:56.453,-487179,-528136,-527846,-575852,2,2,2,2
2025-09-03 13:14:56.453,-487179,-528141,-527851,-559469,2,2,2,2
2025-09-03 13:14:56.453,-487188,-528153,-527865,-559481,2,2,2,2
2025-09-03 13:14:56.453,-478998,-528159,-527872,-575805,2,2,2,2
2025-09-03 13:14:56.454,-487183,-528155,-527869,-559480,2,2,2,2
2025-09-03 13:14:56.454,-487167,-528138,-527853,-575848,2,2,2,2
2025-09-03 13:14:56.454,-487143,-528117,-527770,-575761,2,2,2,2
2025-09-03 13:14:56.454,-470747,-528105,-527756,-559362,2,2,2,2
2025-09-03 13:14:56.455,-470754,-528110,-527763,-559370,2,2,2,2
2025-09-03 13:14:56.455,-470682,-528100,-527755,-559362,2,2,2,2
2025-09-03 13:14:56.455,-487055,-528025,-527680,-559608,2,2,2,2
2025-09-03 13:14:56.456,-487059,-528031,-527813,-559615,2,2,2,2
2025-09-03 13:14:56.456,-487057,-528097,-527750,-559615,2,2,2,2
2025-09-03 13:14:56.456,-487114,-528029,-527742,-559611,2,2,2,2
2025-09-03 13:14:56.456,-487054,-528060,-527743,-559609,2,2,2,2
2025-09-03 13:14:56.457,-470706,-528030,-527741,-559613,2,2,2,2
2025-09-03 13:14:56.457,-478875,-528101,-527748,-575748,2,2,2,2
2025-09-03 13:14:56.457,-478868,-528091,-527739,-559613,2,2,2,2
2025-09-03 13:14:56.458,-470660,-528014,-527727,-559596,2,2,2,2
2025-09-03 13:14:56.458,-470660,-528013,-527729,-559596,2,2,2,2
2025-09-03 13:14:56.458,-470664,-528022,-527738,-559605,2,2,2,2
2025-09-03 13:14:56.459,-487054,-528021,-527738,-559611,2,2,2,2
2025-09-03 13:14:56.459,-487069,-528104,-527820,-559369,2,2,2,2
2025-09-03 13:14:56.459,-487059,-528031,-527680,-559616,2,2,2,2
2025-09-03 13:14:56.459,-487052,-528090,-527737,-575993,2,2,2,2
2025-09-03 13:14:56.460,-478851,-528080,-527729,-575948,2,2,2,2
2025-09-03 13:14:56.460,-487019,-527992,-527634,-559504,2,2,2,2
2025-09-03 13:14:56.460,-486933,-527940,-527869,-559484,2,2,2,2
2025-09-03 13:14:56.460,-470533,-527890,-527853,-559404,2,2,2,2
2025-09-03 13:14:56.461,-470776,-527878,-527843,-559458,2,2,2,2
2025-09-03 13:14:56.461,-487141,-528115,-527797,-559378,2,2,2,2
2025-09-03 13:14:56.461,-478876,-528105,-527757,-559370,2,2,2,2
2025-09-03 13:14:56.461,-487115,-528024,-527676,-559355,2,2,2,2
2025-09-03 13:14:56.462,-487034,-528007,-527660,-559341,2,2,2,2
2025-09-03 13:14:56.462,-487041,-528016,-527666,-559345,2,2,2,2
2025-09-03 13:14:56.462,-478849,-528084,-527732,-575732,2,2,2,2
2025-09-03 13:14:56.463,-470659,-528022,-527734,-559348,2,2,2,2
2025-09-03 13:14:56.463,-487052,-528098,-527747,-575740,2,2,2,2
2025-09-03 13:14:56.463,-487138,-528120,-527768,-575761,2,2,2,2
2025-09-03 13:14:56.463,-470779,-527891,-527857,-559468,2,2,2,2
2025-09-03 13:14:56.464,-486917,-527969,-527868,-559480,2,2,2,2
2025-09-03 13:14:56.464,-470533,-527904,-527867,-559418,2,2,2,2
2025-09-03 13:14:56.464,-470530,-527902,-527862,-559414,2,2,2,2
2025-09-03 13:14:56.464,-487161,-527892,-527850,-559467,2,2,2,2
2025-09-03 13:14:56.465,-487156,-527889,-527848,-559464,2,2,2,2
2025-09-03 13:14:56.465,-487146,-527876,-527775,-559389,2,2,2,2
2025-09-03 13:14:56.465,-487152,-527880,-527813,-559390,2,2,2,2
2025-09-03 13:14:56.465,-487146,-527874,-527774,-575765,2,2,2,2
2025-09-03 13:14:56.466,-470731,-527880,-527842,-559382,2,2,2,2
2025-09-03 13:14:56.466,-478948,-527875,-527771,-575760,2,2,2,2
2025-09-03 13:14:56.466,-478950,-527879,-527771,-575765,2,2,2,2
2025-09-03 13:14:56.466,-487150,-527884,-527809,-559388,2,2,2,2
2025-09-03 13:14:56.467,-487165,-527896,-527857,-559466,2,2,2,2
2025-09-03 13:14:56.467,-470535,-527974,-527869,-559477,2,2,2,2
2025-09-03 13:14:56.467,-470550,-527992,-527627,-559492,2,2,2,2
2025-09-03 13:14:56.468,-487022,-528011,-527715,-559509,2,2,2,2
2025-09-03 13:14:56.468,-487056,-528103,-527676,-559600,2,2,2,2
2025-09-03 13:14:56.468,-487069,-528115,-527815,-559614,2,2,2,2
2025-09-03 13:14:56.468,-487065,-528107,-527746,-575994,2,2,2,2
2025-09-03 13:14:56.469,-478945,-528113,-527752,-576000,2,2,2,2
2025-09-03 13:14:56.469,-470685,-528108,-527749,-559614,2,2,2,2
2025-09-03 13:14:56.469,-487065,-528071,-527745,-559609,2,2,2,2
2025-09-03 13:14:56.469,-470721,-528106,-527748,-559613,2,2,2,2
2025-09-03 13:14:56.470,-470752,-528104,-527748,-559611,2,2,2,2
2025-09-03 13:14:56.470,-487127,-528032,-527744,-559605,2,2,2,2
2025-09-03 13:14:56.470,-487117,-528024,-527734,-559594,2,2,2,2
2025-09-03 13:14:56.470,-487040,-528009,-527719,-559515,2,2,2,2
2025-09-03 13:14:56.471,-487021,-527927,-527633,-575877,2,2,2,2
2025-09-03 13:14:56.471,-486941,-527978,-527618,-559476,2,2,2,2
2025-09-03 13:14:56.471,-478735,-527900,-527857,-575784,2,2,2,2
2025-09-03 13:14:56.472,-470781,-527883,-527773,-559385,2,2,2,2
2025-09-03 13:14:56.472,-487155,-527877,-527767,-575795,2,2,2,2
2025-09-03 13:14:56.472,-487144,-528125,-527759,-575755,2,2,2,2
2025-09-03 13:14:56.472,-487144,-528125,-527758,-559368,2,2,2,2
2025-09-03 13:14:56.473,-487135,-528111,-527744,-559359,2,2,2,2
2025-09-03 13:14:56.473,-487058,-528100,-527667,-559346,2,2,2,2
2025-09-03 13:14:56.473,-470657,-528019,-527717,-559330,2,2,2,2
2025-09-03 13:14:56.473,-487031,-528011,-527647,-559260,2,2,2,2
2025-09-03 13:14:56.474,-487060,-528067,-527732,-559347,2,2,2,2
2025-09-03 13:14:56.474,-487129,-528104,-527671,-559351,2,2,2,2
2025-09-03 13:14:56.474,-487050,-528059,-527723,-575719,2,2,2,2
2025-09-03 13:14:56.475,-470648,-528008,-527644,-559323,2,2,2,2
2025-09-03 13:14:56.475,-478821,-527926,-527622,-575686,2,2,2,2
2025-09-03 13:14:56.475,-478744,-527917,-527606,-575546,2,2,2,2
2025-09-03 13:14:56.475,-486932,-527982,-527603,-559220,2,2,2,2
2025-09-03 13:14:56.476,-486922,-527975,-527597,-559212,2,2,2,2
2025-09-03 13:14:56.476,-470520,-527893,-527519,-559128,2,2,2,2
2025-09-03 13:14:56.476,-470518,-527888,-527514,-559124,2,2,2,2
2025-09-03 13:14:56.477,-486908,-527928,-527518,-559131,2,2,2,2
2025-09-03 13:14:56.477,-486908,-527893,-527583,-559130,2,2,2,2
2025-09-03 13:14:56.477,-486898,-527884,-527576,-559120,2,2,2,2
2025-09-03 13:14:56.477,-486887,-527872,-527499,-575496,2,2,2,2
2025-09-03 13:14:56.478,-478699,-527877,-527506,-575502,2,2,2,2
2025-09-03 13:14:56.478,-470518,-527886,-527518,-559128,2,2,2,2
2025-09-03 13:14:56.478,-486920,-527933,-527599,-575591,2,2,2,2
2025-09-03 13:14:56.478,-470599,-527999,-527631,-559306,2,2,2,2
2025-09-03 13:14:56.479,-470588,-528022,-527718,-559262,2,2,2,2
2025-09-03 13:14:56.479,-487122,-528111,-527744,-559353,2,2,2,2
2025-09-03 13:14:56.479,-487146,-527881,-527804,-559378,2,2,2,2
2025-09-03 13:14:56.479,-487159,-527926,-527849,-559391,2,2,2,2
2025-09-03 13:14:56.480,-487153,-527887,-527842,-575766,2,2,2,2
2025-09-03 13:14:56.480,-478946,-528123,-527762,-559358,2,2,2,2
2025-09-03 13:14:56.481,-470757,-528122,-527763,-559359,2,2,2,2
2025-09-03 13:14:56.481,-487153,-527878,-527776,-559369,2,2,2,2
2025-09-03 13:14:56.481,-487162,-527894,-527851,-575796,2,2,2,2
2025-09-03 13:14:56.481,-487168,-527903,-527860,-559391,2,2,2,2
2025-09-03 13:14:56.482,-486927,-527983,-527620,-559471,2,2,2,2
2025-09-03 13:14:56.482,-486941,-527991,-527634,-559487,2,2,2,2
2025-09-03 13:14:56.482,-470597,-527996,-527643,-559560,2,2,2,2
2025-09-03 13:14:56.482,-487012,-527998,-527646,-559500,2,2,2,2
2025-09-03 13:14:56.483,-486932,-527988,-527631,-559491,2,2,2,2
2025-09-03 13:14:56.483,-486921,-527945,-527619,-559484,2,2,2,2
2025-09-03 13:14:56.483,-470539,-527981,-527620,-559421,2,2,2,2
2025-09-03 13:14:56.484,-470536,-527979,-527623,-559484,2,2,2,2
2025-09-03 13:14:56.484,-478728,-527918,-527622,-559420,2,2,2,2
2025-09-03 13:14:56.484,-478729,-527918,-527621,-559416,2,2,2,2
2025-09-03 13:14:56.484,-487167,-527902,-527867,-559464,2,2,2,2
2025-09-03 13:14:56.485,-487157,-527892,-527857,-559390,2,2,2,2
2025-09-03 13:14:56.485,-487149,-527881,-527846,-559378,2,2,2,2
2025-09-03 13:14:56.485,-487160,-527893,-527855,-559387,2,2,2,2
2025-09-03 13:14:56.486,-486940,-527993,-527631,-559486,2,2,2,2
2025-09-03 13:14:56.486,-486932,-527984,-527617,-559469,2,2,2,2
2025-09-03 13:14:56.486,-486930,-527977,-527867,-559468,2,2,2,2
2025-09-03 13:14:56.486,-486938,-527925,-527618,-575866,2,2,2,2
2025-09-03 13:14:56.487,-478821,-527935,-527628,-559556,2,2,2,2
2025-09-03 13:14:56.487,-470629,-527996,-527627,-559557,2,2,2,2
2025-09-03 13:14:56.487,-486941,-527928,-527623,-575871,2,2,2,2
2025-09-03 13:14:56.487,-470595,-527998,-527631,-559555,2,2,2,2
2025-09-03 13:14:56.488,-486954,-528004,-527640,-559495,2,2,2,2
2025-09-03 13:14:56.488,-486961,-528015,-527649,-559502,2,2,2,2
2025-09-03 13:14:56.488,-486969,-528024,-527659,-559512,2,2,2,2
2025-09-03 13:14:56.488,-487046,-528071,-527736,-575975,2,2,2,2
2025-09-03 13:14:56.489,-487065,-528120,-527753,-575997,2,2,2,2
2025-09-03 13:14:56.489,-470815,-528251,-527885,-559558,2,2,2,2
2025-09-03 13:14:56.490,-470813,-528248,-527884,-559560,2,2,2,2
2025-09-03 13:14:56.490,-487200,-528192,-527890,-575885,2,2,2,2
2025-09-03 13:14:56.490,-487195,-528187,-527886,-575879,2,2,2,2
2025-09-03 13:14:56.490,-487190,-528246,-527881,-559489,2,2,2,2
2025-09-03 13:14:56.491,-487186,-528239,-527872,-559482,2,2,2,2
2025-09-03 13:14:56.491,-487168,-528158,-527855,-559464,2,2,2,2
2025-09-03 13:14:56.491,-470771,-528148,-527844,-559390,2,2,2,2
2025-09-03 13:14:56.491,-487150,-528140,-527835,-559383,2,2,2,2
2025-09-03 13:14:56.492,-487137,-528124,-527760,-575751,2,2,2,2
2025-09-03 13:14:56.492,-487143,-528131,-527767,-559367,2,2,2,2
2025-09-03 13:14:56.492,-470720,-528122,-527763,-559616,2,2,2,2
2025-09-03 13:14:56.493,-470743,-528116,-527756,-559613,2,2,2,2
2025-09-03 13:14:56.493,-470678,-528114,-527753,-559616,2,2,2,2
2025-09-03 13:14:56.493,-478877,-528125,-527757,-559366,2,2,2,2
2025-09-03 13:14:56.493,-487122,-528119,-527818,-559615,2,2,2,2
2025-09-03 13:14:56.494,-487045,-528103,-527680,-559600,2,2,2,2
2025-09-03 13:14:56.494,-486968,-528022,-527694,-559518,2,2,2,2
2025-09-03 13:14:56.494,-486966,-528023,-527727,-559518,2,2,2,2
2025-09-03 13:14:56.494,-487023,-528011,-527719,-559513,2,2,2,2
2025-09-03 13:14:56.495,-486942,-527995,-527644,-559498,2,2,2,2
2025-09-03 13:14:56.495,-486927,-527915,-527630,-575868,2,2,2,2
2025-09-03 13:14:56.495,-487164,-527897,-527868,-559467,2,2,2,2
2025-09-03 13:14:56.496,-470677,-528118,-527764,-559368,2,2,2,2
2025-09-03 13:14:56.496,-470656,-528098,-527742,-559349,2,2,2,2
2025-09-03 13:14:56.496,-470663,-528101,-527746,-559353,2,2,2,2
2025-09-03 13:14:56.496,-487060,-528116,-527826,-559367,2,2,2,2
2025-09-03 13:14:56.497,-487117,-528110,-527816,-559362,2,2,2,2
2025-09-03 13:14:56.497,-487116,-528111,-527816,-559360,2,2,2,2
2025-09-03 13:14:56.497,-487052,-528114,-527759,-575744,2,2,2,2
2025-09-03 13:14:56.498,-487056,-528118,-527767,-575752,2,2,2,2
2025-09-03 13:14:56.498,-470779,-527902,-527870,-559409,2,2,2,2
2025-09-03 13:14:56.499,-470535,-527979,-527626,-559423,2,2,2,2
2025-09-03 13:14:56.499,-486924,-527917,-527628,-575875,2,2,2,2
2025-09-03 13:14:56.499,-486937,-527926,-527637,-575885,2,2,2,2
2025-09-03 13:14:56.499,-486943,-527996,-527670,-559505,2,2,2,2
2025-09-03 13:14:56.500,-486932,-527985,-527627,-559492,2,2,2,2
2025-09-03 13:14:56.500,-486920,-527972,-527870,-559481,2,2,2,2
2025-09-03 13:14:56.500,-470537,-527904,-527865,-559482,2,2,2,2
2025-09-03 13:14:56.501,-486924,-527914,-527617,-575877,2,2,2,2
2025-09-03 13:14:56.501,-487160,-527897,-527855,-559475,2,2,2,2
2025-09-03 13:14:56.501,-470732,-527891,-527847,-559398,2,2,2,2
2025-09-03 13:14:56.502,-487071,-527880,-527773,-575801,2,2,2,2
2025-09-03 13:14:56.502,-470673,-528118,-527756,-559364,2,2,2,2
2025-09-03 13:14:56.502,-470666,-528107,-527747,-559351,2,2,2,2
2025-09-03 13:14:56.502,-470664,-528107,-527751,-559352,2,2,2,2
2025-09-03 13:14:56.503,-487057,-528115,-527827,-559364,2,2,2,2
2025-09-03 13:14:56.503,-487141,-527876,-527810,-559384,2,2,2,2
2025-09-03 13:14:56.503,-487144,-527879,-527810,-559385,2,2,2,2
2025-09-03 13:14:56.503,-487140,-527873,-527776,-559382,2,2,2,2
2025-09-03 13:14:56.504,-487140,-527879,-527843,-575769,2,2,2,2
2025-09-03 13:14:56.504,-487070,-528127,-527841,-559377,2,2,2,2
2025-09-03 13:14:56.504,-487061,-528115,-527831,-559367,2,2,2,2
2025-09-03 13:14:56.504,-478868,-528107,-527760,-575747,2,2,2,2
2025-09-03 13:14:56.505,-470680,-528111,-527763,-559367,2,2,2,2
2025-09-03 13:14:56.505,-470715,-528116,-527766,-559369,2,2,2,2
2025-09-03 13:14:56.505,-487064,-528111,-527758,-575744,2,2,2,2
2025-09-03 13:14:56.505,-470752,-528119,-527766,-559365,2,2,2,2
2025-09-03 13:14:56.506,-487144,-528128,-527800,-559376,2,2,2,2
2025-09-03 13:14:56.506,-487142,-528125,-527829,-559377,2,2,2,2
2025-09-03 13:14:56.506,-487139,-528120,-527825,-559375,2,2,2,2
2025-09-03 13:14:56.506,-487068,-528109,-527755,-575753,2,2,2,2
2025-09-03 13:14:56.507,-487061,-528102,-527749,-575746,2,2,2,2
2025-09-03 13:14:56.507,-487061,-528105,-527750,-559363,2,2,2,2
2025-09-03 13:14:56.507,-487053,-528099,-527744,-559354,2,2,2,2
2025-09-03 13:14:56.507,-487037,-528053,-527730,-559340,2,2,2,2
2025-09-03 13:14:56.508,-470643,-528012,-527719,-559326,2,2,2,2
2025-09-03 13:14:56.508,-478835,-528075,-527720,-575708,2,2,2,2
2025-09-03 13:14:56.508,-478825,-528067,-527643,-575667,2,2,2,2
2025-09-03 13:14:56.508,-486944,-527992,-527667,-559245,2,2,2,2
2025-09-03 13:14:56.509,-486937,-527987,-527625,-559241,2,2,2,2
2025-09-03 13:14:56.509,-486933,-527979,-527617,-559232,2,2,2,2
2025-09-03 13:14:56.509,-470538,-527904,-527609,-559224,2,2,2,2
2025-09-03 13:14:56.509,-486916,-527902,-527609,-559222,2,2,2,2
2025-09-03 13:14:56.510,-486931,-527981,-527623,-559239,2,2,2,2
2025-09-03 13:14:56.510,-486933,-527920,-527625,-575626,2,2,2,2
2025-09-03 13:14:56.510,-486933,-527985,-527626,-559237,2,2,2,2
2025-09-03 13:14:56.510,-486930,-527921,-527625,-575621,2,2,2,2
2025-09-03 13:14:56.511,-486943,-528000,-527641,-559252,2,2,2,2
2025-09-03 13:14:56.511,-470632,-528009,-527713,-559325,2,2,2,2
2025-09-03 13:14:56.511,-470636,-528016,-527721,-559335,2,2,2,2
2025-09-03 13:14:56.511,-470644,-528019,-527725,-559342,2,2,2,2
2025-09-03 13:14:56.512,-487022,-528016,-527658,-559337,2,2,2,2
2025-09-03 13:14:56.512,-486961,-528018,-527690,-559338,2,2,2,2
2025-09-03 13:14:56.512,-486957,-528011,-527685,-559331,2,2,2,2
2025-09-03 13:14:56.512,-486946,-527995,-527640,-559258,2,2,2,2
2025-09-03 13:14:56.513,-486928,-527915,-527623,-575626,2,2,2,2
2025-09-03 13:14:56.513,-486921,-527909,-527616,-575624,2,2,2,2
2025-09-03 13:14:56.514,-470524,-527895,-527607,-559166,2,2,2,2
2025-09-03 13:14:56.514,-486905,-527888,-527603,-575609,2,2,2,2
2025-09-03 13:14:56.514,-486905,-527884,-527602,-575606,2,2,2,2
2025-09-03 13:14:56.514,-470514,-527878,-527593,-559216,2,2,2,2
2025-09-03 13:14:56.515,-486890,-527876,-527585,-559207,2,2,2,2
2025-09-03 13:14:56.515,-470507,-527879,-527588,-559144,2,2,2,2
2025-09-03 13:14:56.515,-486894,-527877,-527588,-559208,2,2,2,2
2025-09-03 13:14:56.516,-486902,-527885,-527594,-575568,2,2,2,2
2025-09-03 13:14:56.516,-486902,-527889,-527599,-559217,2,2,2,2
2025-09-03 13:14:56.516,-486898,-527887,-527598,-559216,2,2,2,2
2025-09-03 13:14:56.516,-470511,-527886,-527591,-559146,2,2,2,2
2025-09-03 13:14:56.517,-470521,-527902,-527599,-559156,2,2,2,2
2025-09-03 13:14:56.517,-478725,-527911,-527605,-575545,2,2,2,2
2025-09-03 13:14:56.517,-478742,-527924,-527621,-575689,2,2,2,2
2025-09-03 13:14:56.517,-486941,-528000,-527629,-559252,2,2,2,2
2025-09-03 13:14:56.518,-486952,-528011,-527641,-559262,2,2,2,2
2025-09-03 13:14:56.518,-487017,-528010,-527639,-559263,2,2,2,2
2025-09-03 13:14:56.518,-470554,-527998,-527629,-559252,2,2,2,2
2025-09-03 13:14:56.519,-470558,-527934,-527634,-559315,2,2,2,2
2025-09-03 13:14:56.519,-486939,-527932,-527630,-575630,2,2,2,2
2025-09-03 13:14:56.519,-486931,-527923,-527625,-575620,2,2,2,2
2025-09-03 13:14:56.519,-486941,-527930,-527632,-575629,2,2,2,2
2025-09-03 13:14:56.520,-486952,-528008,-527676,-559256,2,2,2,2
2025-09-03 13:14:56.520,-470637,-528015,-527714,-559326,2,2,2,2
2025-09-03 13:14:56.520,-487018,-528011,-527646,-575644,2,2,2,2
2025-09-03 13:14:56.520,-470592,-528001,-527637,-559316,2,2,2,2
2025-09-03 13:14:56.521,-486941,-527998,-527632,-559247,2,2,2,2
2025-09-03 13:14:56.521,-486939,-527997,-527634,-559244,2,2,2,2
2025-09-03 13:14:56.521,-486952,-528009,-527678,-559255,2,2,2,2
2025-09-03 13:14:56.521,-486975,-528030,-527671,-559343,2,2,2,2
2025-09-03 13:14:56.522,-487065,-528118,-527760,-575752,2,2,2,2
2025-09-03 13:14:56.522,-478727,-527909,-527863,-559413,2,2,2,2
2025-09-03 13:14:56.523,-486920,-527974,-527863,-559479,2,2,2,2
2025-09-03 13:14:56.523,-470537,-527977,-527865,-559481,2,2,2,2
2025-09-03 13:14:56.523,-486914,-527907,-527859,-575860,2,2,2,2
2025-09-03 13:14:56.523,-487155,-527891,-527843,-559462,2,2,2,2
2025-09-03 13:14:56.524,-487145,-527875,-527832,-559387,2,2,2,2
2025-09-03 13:14:56.524,-470732,-527881,-527769,-559385,2,2,2,2
2025-09-03 13:14:56.524,-487142,-527877,-527830,-559382,2,2,2,2
2025-09-03 13:14:56.525,-487067,-528119,-527757,-575755,2,2,2,2
2025-09-03 13:14:56.525,-487046,-528066,-527741,-559353,2,2,2,2
2025-09-03 13:14:56.525,-486970,-528021,-527666,-559343,2,2,2,2
2025-09-03 13:14:56.525,-487034,-528089,-527730,-575729,2,2,2,2
2025-09-03 13:14:56.526,-470672,-528108,-527750,-559361,2,2,2,2
2025-09-03 13:14:56.526,-478870,-528112,-527754,-575752,2,2,2,2
2025-09-03 13:14:56.526,-487130,-528119,-527793,-559373,2,2,2,2
2025-09-03 13:14:56.526,-487134,-528125,-527830,-559381,2,2,2,2
2025-09-03 13:14:56.527,-487144,-527875,-527770,-575774,2,2,2,2
2025-09-03 13:14:56.527,-487145,-527875,-527769,-559391,2,2,2,2
2025-09-03 13:14:56.527,-470750,-528119,-527758,-559379,2,2,2,2
2025-09-03 13:14:56.528,-470663,-528101,-527738,-559361,2,2,2,2
2025-09-03 13:14:56.528,-487054,-528107,-527747,-575757,2,2,2,2
2025-09-03 13:14:56.528,-487054,-528108,-527812,-559377,2,2,2,2
2025-09-03 13:14:56.528,-487036,-528098,-527736,-575747,2,2,2,2
2025-09-03 13:14:56.529,-486964,-528029,-527735,-559358,2,2,2,2
2025-09-03 13:14:56.529,-470647,-528030,-527735,-559359,2,2,2,2
2025-09-03 13:14:56.529,-487027,-528057,-527731,-575740,2,2,2,2
2025-09-03 13:14:56.529,-470643,-528025,-527732,-559355,2,2,2,2
2025-09-03 13:14:56.530,-487033,-528031,-527673,-559360,2,2,2,2
2025-09-03 13:14:56.530,-487110,-528111,-527754,-559373,2,2,2,2
2025-09-03 13:14:56.530,-487108,-528104,-527749,-559375,2,2,2,2
2025-09-03 13:14:56.530,-487040,-528064,-527743,-559369,2,2,2,2
2025-09-03 13:14:56.531,-470658,-528032,-527747,-559368,2,2,2,2
2025-09-03 13:14:56.531,-478832,-528085,-527729,-575742,2,2,2,2
2025-09-03 13:14:56.531,-470630,-528078,-527716,-559345,2,2,2,2
2025-09-03 13:14:56.532,-486948,-528016,-527649,-559342,2,2,2,2
2025-09-03 13:14:56.532,-470574,-528022,-527719,-559347,2,2,2,2
2025-09-03 13:14:56.532,-487028,-528092,-527728,-575736,2,2,2,2
2025-09-03 13:14:56.532,-486972,-528097,-527734,-559357,2,2,2,2
2025-09-03 13:14:56.533,-487039,-528097,-527734,-559358,2,2,2,2
2025-09-03 13:14:56.533,-487058,-528114,-527816,-559376,2,2,2,2
2025-09-03 13:14:56.533,-487145,-527885,-527843,-559467,2,2,2,2
2025-09-03 13:14:56.533,-486915,-527903,-527865,-575872,2,2,2,2
2025-09-03 13:14:56.534,-486936,-527992,-527631,-559505,2,2,2,2
2025-09-03 13:14:56.534,-487016,-528007,-527643,-559515,2,2,2,2
2025-09-03 13:14:56.534,-470642,-528017,-527715,-559590,2,2,2,2
2025-09-03 13:14:56.534,-470646,-528021,-527723,-559596,2,2,2,2
2025-09-03 13:14:56.535,-487045,-528100,-527675,-559614,2,2,2,2
2025-09-03 13:14:56.535,-487122,-528111,-527753,-559371,2,2,2,2
2025-09-03 13:14:56.535,-478868,-528113,-527759,-559376,2,2,2,2
2025-09-03 13:14:56.535,-487125,-528119,-527825,-559378,2,2,2,2
2025-09-03 13:14:56.536,-487070,-528133,-527774,-575774,2,2,2,2
2025-09-03 13:14:56.536,-487160,-528156,-527857,-559474,2,2,2,2
2025-09-03 13:14:56.536,-487162,-528225,-527861,-559481,2,2,2,2
2025-09-03 13:14:56.537,-470781,-528231,-527867,-559419,2,2,2,2
2025-09-03 13:14:56.537,-487169,-528172,-527873,-575872,2,2,2,2
2025-09-03 13:14:56.537,-470776,-528227,-527862,-559414,2,2,2,2
2025-09-03 13:14:56.537,-470767,-528150,-527851,-559467,2,2,2,2
2025-09-03 13:14:56.538,-470672,-528116,-527756,-559369,2,2,2,2
2025-09-03 13:14:56.538,-470657,-528032,-527739,-559610,2,2,2,2
2025-09-03 13:14:56.538,-487023,-528009,-527655,-559593,2,2,2,2
2025-09-03 13:14:56.539,-487011,-527933,-527644,-575930,2,2,2,2
2025-09-03 13:14:56.539,-486926,-527980,-527626,-559495,2,2,2,2
2025-09-03 13:14:56.539,-487148,-527878,-527843,-559460,2,2,2,2
2025-09-03 13:14:56.539,-487060,-528077,-527757,-575754,2,2,2,2
2025-09-03 13:14:56.540,-470709,-528110,-527760,-559368,2,2,2,2
2025-09-03 13:14:56.540,-470638,-528006,-527722,-559333,2,2,2,2
2025-09-03 13:14:56.541,-486936,-527984,-527635,-559245,2,2,2,2
2025-09-03 13:14:56.541,-486923,-527907,-527628,-575620,2,2,2,2
2025-09-03 13:14:56.541,-470557,-527993,-527717,-559260,2,2,2,2
2025-09-03 13:14:56.541,-486959,-528015,-527737,-559344,2,2,2,2
2025-09-03 13:14:56.542,-487022,-528012,-527739,-559343,2,2,2,2
2025-09-03 13:14:56.542,-486939,-527996,-527657,-559262,2,2,2,2
2025-09-03 13:14:56.542,-486918,-527969,-527632,-559236,2,2,2,2
2025-09-03 13:14:56.542,-486905,-527892,-527618,-575605,2,2,2,2
2025-09-03 13:14:56.543,-486899,-527884,-527610,-559211,2,2,2,2
2025-09-03 13:14:56.543,-486892,-527882,-527600,-575589,2,2,2,2
2025-09-03 13:14:56.543,-486811,-527871,-527518,-559130,2,2,2,2
2025-09-03 13:14:56.543,-470406,-527848,-527498,-559108,2,2,2,2
2025-09-03 13:14:56.544,-486772,-527767,-527415,-559345,2,2,2,2
2025-09-03 13:14:56.544,-470372,-527751,-527462,-559331,2,2,2,2
2025-09-03 13:14:56.544,-486698,-527759,-527439,-559336,2,2,2,2
2025-09-03 13:14:56.544,-486686,-527753,-527397,-559263,2,2,2,2
2025-09-03 13:14:56.545,-486676,-527810,-527387,-575640,2,2,2,2
2025-09-03 13:14:56.545,-486667,-527731,-527373,-559241,2,2,2,2
2025-09-03 13:14:56.545,-486683,-527746,-527386,-559254,2,2,2,2
2025-09-03 13:14:56.546,-470375,-527758,-527463,-559330,2,2,2,2
2025-09-03 13:14:56.546,-486762,-527826,-527471,-575687,2,2,2,2
2025-09-03 13:14:56.546,-486753,-527818,-527464,-575676,2,2,2,2
2025-09-03 13:14:56.546,-486671,-527735,-527383,-559243,2,2,2,2
2025-09-03 13:14:56.547,-470287,-527734,-527382,-559307,2,2,2,2
2025-09-03 13:14:56.547,-486677,-527739,-527387,-559250,2,2,2,2
2025-09-03 13:14:56.547,-486756,-527747,-527399,-559263,2,2,2,2
2025-09-03 13:14:56.548,-486764,-527818,-527472,-575690,2,2,2,2
2025-09-03 13:14:56.548,-486695,-527750,-527405,-559333,2,2,2,2
2025-09-03 13:14:56.548,-486682,-527740,-527397,-559261,2,2,2,2
2025-09-03 13:14:56.548,-486671,-527667,-527384,-575639,2,2,2,2
2025-09-03 13:14:56.549,-470321,-527732,-527382,-559252,2,2,2,2
2025-09-03 13:14:56.549,-478487,-527670,-527384,-559319,2,2,2,2
2025-09-03 13:14:56.549,-486688,-527744,-527391,-559261,2,2,2,2
2025-09-03 13:14:56.549,-470388,-527764,-527476,-559347,2,2,2,2
2025-09-03 13:14:56.550,-486785,-527776,-527554,-559105,2,2,2,2
2025-09-03 13:14:56.550,-486715,-527775,-527482,-559354,2,2,2,2
2025-09-03 13:14:56.550,-470323,-527765,-527475,-559344,2,2,2,2
2025-09-03 13:14:56.551,-470382,-527757,-527467,-559336,2,2,2,2
2025-09-03 13:14:56.551,-486768,-527794,-527475,-575723,2,2,2,2
2025-09-03 13:14:56.551,-470390,-527767,-527479,-559339,2,2,2,2
2025-09-03 13:14:56.551,-486777,-527836,-527481,-575696,2,2,2,2
2025-09-03 13:14:56.552,-486708,-527766,-527479,-559340,2,2,2,2
2025-09-03 13:14:56.552,-486772,-527797,-527477,-575723,2,2,2,2
2025-09-03 13:14:56.552,-486766,-527757,-527468,-575713,2,2,2,2
2025-09-03 13:14:56.552,-470330,-527739,-527385,-559307,2,2,2,2
2025-09-03 13:14:56.553,-486912,-527713,-527616,-559217,2,2,2,2
2025-09-03 13:14:56.553,-486893,-527632,-527594,-559136,2,2,2,2
2025-09-03 13:14:56.553,-486893,-527632,-527563,-559134,2,2,2,2
2025-09-03 13:14:56.553,-486888,-527629,-527591,-559129,2,2,2,2
2025-09-03 13:14:56.554,-470474,-527630,-527596,-559131,2,2,2,2
2025-09-03 13:14:56.554,-470507,-527637,-527604,-559138,2,2,2,2
2025-09-03 13:14:56.555,-486883,-527632,-527602,-559134,2,2,2,2
2025-09-03 13:14:56.555,-486888,-527632,-527603,-575553,2,2,2,2
2025-09-03 13:14:56.555,-486816,-527625,-527593,-575543,2,2,2,2
2025-09-03 13:14:56.555,-486877,-527619,-527552,-559119,2,2,2,2
2025-09-03 13:14:56.556,-486892,-527631,-527596,-559129,2,2,2,2
2025-09-03 13:14:56.556,-486882,-527623,-527585,-559118,2,2,2,2
2025-09-03 13:14:56.556,-470455,-527866,-527508,-559109,2,2,2,2
2025-09-03 13:14:56.556,-486801,-527863,-527567,-559107,2,2,2,2
2025-09-03 13:14:56.557,-478603,-527860,-527501,-575489,2,2,2,2
2025-09-03 13:14:56.557,-486795,-527862,-527499,-559108,2,2,2,2
2025-09-03 13:14:56.557,-486853,-527857,-527557,-559098,2,2,2,2
2025-09-03 13:14:56.557,-486787,-527856,-527493,-575482,2,2,2,2
2025-09-03 13:14:56.558,-486789,-527859,-527561,-559102,2,2,2,2
2025-09-03 13:14:56.558,-478587,-527847,-527486,-559094,2,2,2,2
2025-09-03 13:14:56.558,-478588,-527849,-527491,-559097,2,2,2,2
2025-09-03 13:14:56.558,-486853,-527855,-527561,-559107,2,2,2,2
2025-09-03 13:14:56.559,-486801,-527861,-527504,-575499,2,2,2,2
2025-09-03 13:14:56.559,-486874,-527617,-527516,-559126,2,2,2,2
2025-09-03 13:14:56.559,-486883,-527627,-527590,-559203,2,2,2,2
2025-09-03 13:14:56.560,-470502,-527631,-527591,-559141,2,2,2,2
2025-09-03 13:14:56.560,-486809,-527622,-527578,-559127,2,2,2,2
2025-09-03 13:14:56.560,-486793,-527859,-527559,-559110,2,2,2,2
2025-09-03 13:14:56.560,-486779,-527845,-527481,-575481,2,2,2,2
2025-09-03 13:14:56.561,-486855,-527852,-527490,-559104,2,2,2,2
2025-09-03 13:14:56.561,-486802,-527860,-527499,-575499,2,2,2,2
2025-09-03 13:14:56.561,-486804,-527859,-527504,-575503,2,2,2,2
2025-09-03 13:14:56.561,-470476,-527627,-527592,-559204,2,2,2,2
2025-09-03 13:14:56.562,-486893,-527629,-527592,-559202,2,2,2,2
2025-09-03 13:14:56.562,-486909,-527647,-527608,-559220,2,2,2,2
2025-09-03 13:14:56.562,-486912,-527683,-527610,-575606,2,2,2,2
2025-09-03 13:14:56.563,-470523,-527646,-527610,-559157,2,2,2,2
2025-09-03 13:14:56.563,-470510,-527634,-527596,-559147,2,2,2,2
2025-09-03 13:14:56.564,-486892,-527633,-527596,-559210,2,2,2,2
2025-09-03 13:14:56.564,-486900,-527639,-527605,-575568,2,2,2,2
2025-09-03 13:14:56.564,-486912,-527651,-527361,-575614,2,2,2,2
2025-09-03 13:14:56.564,-486668,-527723,-527369,-559240,2,2,2,2
2025-09-03 13:14:56.565,-486672,-527725,-527376,-559243,2,2,2,2
2025-09-03 13:14:56.565,-486675,-527730,-527381,-559247,2,2,2,2
2025-09-03 13:14:56.565,-470337,-527744,-527461,-559325,2,2,2,2
2025-09-03 13:14:56.565,-486768,-527760,-527411,-559336,2,2,2,2
2025-09-03 13:14:56.566,-478592,-527840,-527491,-575732,2,2,2,2
2025-09-03 13:14:56.566,-486801,-527820,-527501,-575743,2,2,2,2
2025-09-03 13:14:56.566,-486874,-527859,-527571,-559109,2,2,2,2
2025-09-03 13:14:56.566,-470458,-527857,-527502,-559113,2,2,2,2
2025-09-03 13:14:56.567,-486812,-527861,-527566,-559111,2,2,2,2
2025-09-03 13:14:56.567,-470402,-527773,-527475,-559342,2,2,2,2
2025-09-03 13:14:56.567,-470388,-527827,-527466,-559334,2,2,2,2
2025-09-03 13:14:56.567,-486699,-527755,-527394,-559259,2,2,2,2
2025-09-03 13:14:56.568,-486769,-527762,-527401,-559262,2,2,2,2
2025-09-03 13:14:56.568,-486705,-527759,-527434,-559260,2,2,2,2
2025-09-03 13:14:56.568,-486717,-527770,-527480,-559337,2,2,2,2
2025-09-03 13:14:56.568,-486784,-527773,-527484,-559341,2,2,2,2
2025-09-03 13:14:56.569,-470398,-527769,-527480,-559336,2,2,2,2
2025-09-03 13:14:56.569,-486785,-527835,-527486,-575694,2,2,2,2
2025-09-03 13:14:56.569,-486791,-527775,-527559,-559352,2,2,2,2
2025-09-03 13:14:56.569,-478604,-527848,-527501,-575490,2,2,2,2
2025-09-03 13:14:56.570,-486863,-527852,-527503,-559110,2,2,2,2
2025-09-03 13:14:56.570,-470415,-527851,-527501,-559109,2,2,2,2
2025-09-03 13:14:56.570,-470452,-527861,-527509,-559115,2,2,2,2
2025-09-03 13:14:56.570,-486796,-527850,-527564,-559359,2,2,2,2
2025-09-03 13:14:56.571,-486703,-527760,-527406,-559330,2,2,2,2
2025-09-03 13:14:56.571,-486715,-527775,-527421,-559343,2,2,2,2
2025-09-03 13:14:56.571,-486804,-527863,-527508,-575497,2,2,2,2
2025-09-03 13:14:56.572,-470474,-527883,-527594,-559134,2,2,2,2
2025-09-03 13:14:56.572,-478717,-527901,-527613,-575540,2,2,2,2
2025-09-03 13:14:56.572,-470554,-527998,-527642,-559312,2,2,2,2
2025-09-03 13:14:56.573,-470590,-528003,-527645,-559318,2,2,2,2
2025-09-03 13:14:56.573,-486961,-528025,-527735,-559341,2,2,2,2
2025-09-03 13:14:56.573,-470729,-528114,-527756,-559364,2,2,2,2
2025-09-03 13:14:56.574,-487054,-528126,-527768,-559375,2,2,2,2
2025-09-03 13:14:56.574,-487050,-528121,-527827,-559368,2,2,2,2
2025-09-03 13:14:56.574,-487035,-528101,-527810,-559353,2,2,2,2
2025-09-03 13:14:56.574,-487024,-528088,-527736,-575696,2,2,2,2
2025-09-03 13:14:56.575,-486958,-528020,-527730,-559337,2,2,2,2
2025-09-03 13:14:56.575,-487026,-528055,-527731,-575719,2,2,2,2
2025-09-03 13:14:56.575,-487032,-528059,-527733,-575724,2,2,2,2
2025-09-03 13:14:56.575,-470648,-528027,-527733,-559338,2,2,2,2
2025-09-03 13:14:56.576,-470726,-528102,-527747,-559350,2,2,2,2
2025-09-03 13:14:56.576,-487128,-528118,-527796,-559371,2,2,2,2
2025-09-03 13:14:56.576,-470669,-528112,-527754,-559367,2,2,2,2
2025-09-03 13:14:56.576,-487105,-528100,-527677,-559352,2,2,2,2
2025-09-03 13:14:56.577,-487032,-528088,-527734,-575729,2,2,2,2
2025-09-03 13:14:56.577,-470644,-528089,-527733,-559347,2,2,2,2
2025-09-03 13:14:56.578,-470648,-528097,-527741,-559354,2,2,2,2
2025-09-03 13:14:56.578,-487036,-528104,-527748,-575743,2,2,2,2
2025-09-03 13:14:56.578,-487049,-528118,-527759,-575754,2,2,2,2
2025-09-03 13:14:56.578,-487124,-528124,-527800,-559379,2,2,2,2
2025-09-03 13:14:56.579,-487122,-528122,-527799,-559373,2,2,2,2
2025-09-03 13:14:56.579,-470714,-528128,-527774,-559382,2,2,2,2
2025-09-03 13:14:56.579,-470711,-528126,-527770,-559381,2,2,2,2
2025-09-03 13:14:56.579,-487063,-528124,-527831,-559380,2,2,2,2
2025-09-03 13:14:56.580,-487061,-528120,-527767,-559378,2,2,2,2
2025-09-03 13:14:56.580,-487120,-528117,-527826,-559372,2,2,2,2
2025-09-03 13:14:56.580,-487053,-528111,-527756,-575750,2,2,2,2
2025-09-03 13:14:56.581,-487071,-527876,-527841,-575798,2,2,2,2
2025-09-03 13:14:56.581,-487148,-527883,-527856,-559459,2,2,2,2
2025-09-03 13:14:56.581,-478951,-527882,-527853,-559394,2,2,2,2
2025-09-03 13:14:56.581,-487147,-527885,-527857,-559463,2,2,2,2
2025-09-03 13:14:56.582,-487154,-527892,-527859,-559467,2,2,2,2
2025-09-03 13:14:56.582,-487158,-527901,-527867,-559473,2,2,2,2
2025-09-03 13:14:56.582,-487144,-527887,-527856,-559460,2,2,2,2
2025-09-03 13:14:56.583,-487058,-528122,-527768,-559373,2,2,2,2
2025-09-03 13:14:56.583,-487049,-528114,-527828,-559370,2,2,2,2
2025-09-03 13:14:56.583,-487048,-528111,-527824,-559365,2,2,2,2
2025-09-03 13:14:56.583,-487048,-528112,-527759,-575748,2,2,2,2
2025-09-03 13:14:56.584,-478866,-528124,-527765,-559376,2,2,2,2
2025-09-03 13:14:56.584,-470671,-528124,-527765,-559374,2,2,2,2
2025-09-03 13:14:56.584,-470666,-528116,-527758,-559364,2,2,2,2
2025-09-03 13:14:56.584,-487052,-528114,-527823,-559363,2,2,2,2
2025-09-03 13:14:56.585,-487108,-528101,-527810,-559351,2,2,2,2
2025-09-03 13:14:56.585,-486976,-528029,-527677,-559344,2,2,2,2
2025-09-03 13:14:56.585,-487037,-528058,-527735,-575726,2,2,2,2
2025-09-03 13:14:56.586,-487029,-528081,-527731,-575717,2,2,2,2
2025-09-03 13:14:56.587,-470659,-528032,-527750,-559336,2,2,2,2
2025-09-03 13:14:56.587,-470667,-528103,-527755,-559339,2,2,2,2
2025-09-03 13:14:56.587,-470731,-528108,-527757,-559345,2,2,2,2
2025-09-03 13:14:56.587,-487056,-528115,-527760,-575736,2,2,2,2
2025-09-03 13:14:56.587,-487133,-527875,-527805,-559370,2,2,2,2
2025-09-03 13:14:56.588,-487156,-527895,-527859,-559459,2,2,2,2
2025-09-03 13:14:56.588,-487148,-527888,-527854,-559390,2,2,2,2
2025-09-03 13:14:56.588,-487067,-527873,-527834,-559371,2,2,2,2
2025-09-03 13:14:56.588,-487043,-528107,-527747,-575733,2,2,2,2
2025-09-03 13:14:56.589,-478834,-528091,-527728,-575718,2,2,2,2
2025-09-03 13:14:56.589,-487022,-528057,-527724,-575719,2,2,2,2
2025-09-03 13:14:56.589,-487017,-528054,-527722,-559335,2,2,2,2
2025-09-03 13:14:56.589,-470602,-528019,-527723,-559337,2,2,2,2
2025-09-03 13:14:56.590,-470560,-528009,-527713,-559330,2,2,2,2
2025-09-03 13:14:56.590,-486930,-527995,-527632,-559247,2,2,2,2
2025-09-03 13:14:56.590,-470544,-527927,-527628,-559307,2,2,2,2
2025-09-03 13:14:56.590,-486911,-527971,-527612,-559226,2,2,2,2
2025-09-03 13:14:56.591,-486911,-527972,-527616,-559228,2,2,2,2
2025-09-03 13:14:56.591,-486900,-527893,-527609,-559217,2,2,2,2
2025-09-03 13:14:56.591,-478693,-527880,-527593,-559138,2,2,2,2
2025-09-03 13:14:56.592,-470502,-527878,-527592,-559139,2,2,2,2
2025-09-03 13:14:56.592,-486907,-527897,-527612,-575608,2,2,2,2
2025-09-03 13:14:56.592,-486932,-527919,-527633,-575629,2,2,2,2
2025-09-03 13:14:56.592,-486936,-527992,-527642,-559247,2,2,2,2
2025-09-03 13:14:56.593,-486929,-527982,-527668,-559242,2,2,2,2
2025-09-03 13:14:56.593,-470544,-527983,-527632,-559310,2,2,2,2
2025-09-03 13:14:56.593,-470581,-527987,-527630,-559311,2,2,2,2
2025-09-03 13:14:56.593,-487017,-528002,-527647,-559264,2,2,2,2
2025-09-03 13:14:56.594,-487026,-528010,-527722,-559332,2,2,2,2
2025-09-03 13:14:56.594,-486964,-528016,-527663,-559340,2,2,2,2
2025-09-03 13:14:56.594,-487037,-528090,-527736,-575731,2,2,2,2
2025-09-03 13:14:56.595,-470646,-528018,-527727,-559338,2,2,2,2
2025-09-03 13:14:56.595,-478827,-528075,-527716,-575712,2,2,2,2
2025-09-03 13:14:56.595,-478750,-527931,-527636,-575696,2,2,2,2
2025-09-03 13:14:56.595,-486922,-527978,-527619,-559233,2,2,2,2
2025-09-03 13:14:56.596,-486909,-527900,-527605,-559221,2,2,2,2
2025-09-03 13:14:56.596,-486901,-527891,-527597,-559214,2,2,2,2
2025-09-03 13:14:56.596,-470514,-527886,-527595,-559208,2,2,2,2
2025-09-03 13:14:56.597,-486894,-527921,-527595,-559204,2,2,2,2
2025-09-03 13:14:56.597,-486887,-527882,-527591,-575516,2,2,2,2
2025-09-03 13:14:56.597,-486890,-527886,-527593,-559134,2,2,2,2
2025-09-03 13:14:56.597,-486887,-527884,-527592,-575544,2,2,2,2
2025-09-03 13:14:56.598,-478695,-527881,-527592,-575512,2,2,2,2
2025-09-03 13:14:56.598,-470516,-527899,-527608,-559145,2,2,2,2
2025-09-03 13:14:56.598,-470536,-527984,-527628,-559166,2,2,2,2
2025-09-03 13:14:56.598,-470535,-527978,-527620,-559162,2,2,2,2
2025-09-03 13:14:56.599,-486909,-527904,-527610,-559219,2,2,2,2
2025-09-03 13:14:56.599,-486905,-527899,-527603,-559213,2,2,2,2
2025-09-03 13:14:56.599,-486909,-527900,-527606,-559217,2,2,2,2
2025-09-03 13:14:56.599,-486910,-527936,-527605,-559220,2,2,2,2
2025-09-03 13:14:56.600,-486921,-527913,-527611,-575612,2,2,2,2
2025-09-03 13:14:56.600,-470660,-528108,-527739,-559354,2,2,2,2
2025-09-03 13:14:56.601,-470684,-528125,-527760,-559374,2,2,2,2
2025-09-03 13:14:56.601,-487149,-527884,-527845,-559390,2,2,2,2
2025-09-03 13:14:56.601,-486914,-527969,-527865,-559474,2,2,2,2
2025-09-03 13:14:56.602,-486918,-527974,-527866,-559480,2,2,2,2
2025-09-03 13:14:56.602,-486919,-527973,-527868,-559480,2,2,2,2
2025-09-03 13:14:56.602,-470537,-527980,-527872,-559416,2,2,2,2
2025-09-03 13:14:56.602,-487156,-527895,-527852,-559458,2,2,2,2
2025-09-03 13:14:56.603,-478945,-527881,-527770,-575796,2,2,2,2
2025-09-03 13:14:56.603,-487141,-527884,-527773,-559381,2,2,2,2
2025-09-03 13:14:56.603,-487137,-527879,-527769,-559372,2,2,2,2
2025-09-03 13:14:56.603,-470716,-527877,-527763,-559365,2,2,2,2
2025-09-03 13:14:56.604,-470716,-527878,-527762,-559366,2,2,2,2
2025-09-03 13:14:56.604,-478878,-527879,-527767,-559370,2,2,2,2
2025-09-03 13:14:56.604,-478955,-527895,-527842,-559385,2,2,2,2
2025-09-03 13:14:56.604,-487161,-527974,-527854,-559467,2,2,2,2
2025-09-03 13:14:56.605,-487167,-527977,-527859,-559476,2,2,2,2
2025-09-03 13:14:56.605,-487167,-527977,-527859,-559478,2,2,2,2
2025-09-03 13:14:56.605,-487159,-527903,-527850,-559473,2,2,2,2
2025-09-03 13:14:56.606,-470549,-527995,-527619,-559567,2,2,2,2
2025-09-03 13:14:56.606,-487015,-528014,-527637,-559519,2,2,2,2
2025-09-03 13:14:56.606,-487023,-528086,-527648,-575977,2,2,2,2
2025-09-03 13:14:56.606,-487024,-528087,-527648,-575940,2,2,2,2
2025-09-03 13:14:56.607,-486969,-528031,-527687,-559595,2,2,2,2
2025-09-03 13:14:56.607,-487038,-528067,-527724,-559602,2,2,2,2
2025-09-03 13:14:56.607,-470654,-528102,-527725,-559604,2,2,2,2
2025-09-03 13:14:56.607,-470651,-528030,-527721,-559596,2,2,2,2
2025-09-03 13:14:56.608,-478823,-528070,-527642,-575963,2,2,2,2
2025-09-03 13:14:56.608,-470640,-528014,-527720,-559590,2,2,2,2
2025-09-03 13:14:56.608,-487045,-528099,-527676,-559609,2,2,2,2
2025-09-03 13:14:56.609,-487043,-528100,-527740,-575995,2,2,2,2
2025-09-03 13:14:56.609,-470581,-528020,-527726,-559598,2,2,2,2
2025-09-03 13:14:56.609,-487018,-528006,-527719,-559518,2,2,2,2
2025-09-03 13:14:56.610,-486952,-528000,-527651,-559514,2,2,2,2
2025-09-03 13:14:56.610,-487027,-528073,-527728,-575973,2,2,2,2
2025-09-03 13:14:56.610,-487046,-528091,-527745,-575987,2,2,2,2
2025-09-03 13:14:56.610,-487115,-528031,-527750,-559612,2,2,2,2
2025-09-03 13:14:56.611,-487043,-528025,-527744,-559609,2,2,2,2
2025-09-03 13:14:56.611,-487009,-527988,-527644,-559508,2,2,2,2
2025-09-03 13:14:56.611,-470536,-527901,-527872,-559418,2,2,2,2
2025-09-03 13:14:56.611,-487163,-527889,-527858,-559471,2,2,2,2
2025-09-03 13:14:56.612,-478975,-527895,-527863,-575793,2,2,2,2
2025-09-03 13:14:56.612,-486914,-527903,-527870,-559482,2,2,2,2
2025-09-03 13:14:56.612,-486917,-527934,-527620,-559489,2,2,2,2
2025-09-03 13:14:56.612,-486920,-527908,-527626,-575875,2,2,2,2
2025-09-03 13:14:56.613,-470544,-527977,-527629,-559492,2,2,2,2
2025-09-03 13:14:56.613,-486924,-527978,-527623,-559493,2,2,2,2
2025-09-03 13:14:56.613,-470625,-527998,-527640,-559577,2,2,2,2
2025-09-03 13:14:56.614,-487034,-528092,-527733,-575988,2,2,2,2
2025-09-03 13:14:56.614,-470656,-528098,-527741,-559614,2,2,2,2
2025-09-03 13:14:56.614,-486975,-528098,-527740,-559615,2,2,2,2
2025-09-03 13:14:56.614,-487035,-528099,-527737,-559610,2,2,2,2
2025-09-03 13:14:56.615,-487033,-528098,-527665,-559604,2,2,2,2
2025-09-03 13:14:56.615,-487030,-528030,-527664,-559602,2,2,2,2
2025-09-03 13:14:56.615,-487036,-528102,-527672,-559608,2,2,2,2
2025-09-03 13:14:56.615,-478859,-528119,-527754,-575749,2,2,2,2
2025-09-03 13:14:56.616,-487066,-528132,-527764,-559375,2,2,2,2
2025-09-03 13:14:56.616,-487066,-528130,-527764,-559376,2,2,2,2
2025-09-03 13:14:56.616,-487143,-528139,-527773,-575771,2,2,2,2
2025-09-03 13:14:56.616,-470760,-528135,-527773,-559386,2,2,2,2
2025-09-03 13:14:56.617,-478951,-528134,-527772,-559388,2,2,2,2
2025-09-03 13:14:56.617,-478880,-528133,-527771,-559386,2,2,2,2
2025-09-03 13:14:56.617,-487132,-528129,-527832,-559385,2,2,2,2
2025-09-03 13:14:56.617,-487056,-528111,-527818,-559374,2,2,2,2
2025-09-03 13:14:56.618,-470637,-528011,-527717,-559592,2,2,2,2
2025-09-03 13:14:56.619,-486940,-527933,-527635,-575897,2,2,2,2
2025-09-03 13:14:56.619,-486928,-527917,-527622,-575880,2,2,2,2
2025-09-03 13:14:56.619,-486918,-527906,-527868,-575870,2,2,2,2
2025-09-03 13:14:56.619,-487159,-527892,-527820,-559472,2,2,2,2
2025-09-03 13:14:56.620,-470753,-528127,-527771,-559385,2,2,2,2
2025-09-03 13:14:56.620,-470675,-528119,-527761,-559375,2,2,2,2
2025-09-03 13:14:56.620,-487056,-528115,-527820,-559365,2,2,2,2
2025-09-03 13:14:56.621,-487130,-528124,-527828,-559372,2,2,2,2
2025-09-03 13:14:56.621,-487146,-527886,-527841,-559383,2,2,2,2
2025-09-03 13:14:56.621,-487154,-527894,-527849,-559389,2,2,2,2
2025-09-03 13:14:56.621,-487152,-527895,-527847,-575772,2,2,2,2
2025-09-03 13:14:56.622,-478949,-527880,-527769,-575763,2,2,2,2
2025-09-03 13:14:56.622,-470769,-527890,-527842,-559388,2,2,2,2
2025-09-03 13:14:56.622,-487161,-527895,-527849,-559459,2,2,2,2
2025-09-03 13:14:56.623,-470781,-527902,-527853,-559469,2,2,2,2
2025-09-03 13:14:56.623,-487160,-527898,-527851,-575821,2,2,2,2
2025-09-03 13:14:56.623,-487163,-527970,-527861,-559479,2,2,2,2
2025-09-03 13:14:56.623,-487164,-527971,-527862,-559478,2,2,2,2
2025-09-03 13:14:56.624,-487164,-527903,-527858,-559477,2,2,2,2
2025-09-03 13:14:56.624,-487162,-527902,-527855,-559472,2,2,2,2
2025-09-03 13:14:56.624,-487164,-527904,-527858,-559473,2,2,2,2
2025-09-03 13:14:56.624,-478727,-527920,-527617,-575938,2,2,2,2
2025-09-03 13:14:56.625,-486919,-527951,-527872,-575876,2,2,2,2
2025-09-03 13:14:56.625,-486921,-527989,-527621,-575880,2,2,2,2
2025-09-03 13:14:56.625,-486922,-527923,-527622,-575880,2,2,2,2
2025-09-03 13:14:56.625,-470543,-527991,-527626,-559496,2,2,2,2
2025-09-03 13:14:56.626,-470532,-527985,-527623,-559554,2,2,2,2
2025-09-03 13:14:56.626,-487155,-527970,-527862,-559473,2,2,2,2
2025-09-03 13:14:56.626,-487138,-527892,-527847,-559458,2,2,2,2
2025-09-03 13:14:56.626,-487061,-527878,-527768,-575764,2,2,2,2
2025-09-03 13:14:56.627,-487071,-527881,-527774,-559391,2,2,2,2
2025-09-03 13:14:56.627,-470681,-527875,-527769,-559384,2,2,2,2
2025-09-03 13:14:56.628,-487044,-528115,-527754,-575749,2,2,2,2
2025-09-03 13:14:56.628,-486944,-528084,-527723,-575688,2,2,2,2
2025-09-03 13:14:56.628,-478728,-527931,-527635,-575628,2,2,2,2
2025-09-03 13:14:56.628,-486935,-528011,-527680,-559261,2,2,2,2
2025-09-03 13:14:56.629,-470602,-528029,-527729,-559341,2,2,2,2
2025-09-03 13:14:56.629,-487029,-528101,-527674,-559345,2,2,2,2
2025-09-03 13:14:56.629,-487039,-528112,-527815,-559357,2,2,2,2
2025-09-03 13:14:56.629,-487036,-528105,-527746,-575736,2,2,2,2
2025-09-03 13:14:56.630,-487035,-528074,-527741,-559352,2,2,2,2
2025-09-03 13:14:56.630,-487048,-528117,-527753,-559360,2,2,2,2
2025-09-03 13:14:56.630,-487048,-528116,-527752,-575742,2,2,2,2
2025-09-03 13:14:56.630,-470659,-528112,-527747,-559352,2,2,2,2
2025-09-03 13:14:56.631,-478843,-528102,-527737,-575727,2,2,2,2
2025-09-03 13:14:56.631,-470636,-528089,-527722,-559333,2,2,2,2
2025-09-03 13:14:56.631,-470635,-528029,-527728,-559337,2,2,2,2
2025-09-03 13:14:56.631,-487032,-528107,-527676,-559350,2,2,2,2
2025-09-03 13:14:56.632,-486975,-528109,-527748,-559355,2,2,2,2
2025-09-03 13:14:56.632,-470729,-528115,-527754,-559364,2,2,2,2
2025-09-03 13:14:56.632,-487131,-527875,-527798,-559379,2,2,2,2
2025-09-03 13:14:56.632,-487142,-527887,-527776,-559457,2,2,2,2
2025-09-03 13:14:56.633,-487166,-527911,-527863,-575865,2,2,2,2
2025-09-03 13:14:56.633,-486924,-527994,-527619,-559498,2,2,2,2
2025-09-03 13:14:56.633,-486933,-528070,-527631,-575924,2,2,2,2
2025-09-03 13:14:56.633,-486943,-528017,-527673,-559516,2,2,2,2
2025-09-03 13:14:56.634,-470636,-528027,-527714,-559591,2,2,2,2
2025-09-03 13:14:56.634,-487025,-528063,-527715,-575980,2,2,2,2
2025-09-03 13:14:56.634,-470656,-528108,-527726,-559611,2,2,2,2
2025-09-03 13:14:56.634,-487053,-528120,-527679,-559370,2,2,2,2
2025-09-03 13:14:56.635,-487133,-528141,-527797,-559387,2,2,2,2
2025-09-03 13:14:56.635,-487128,-528137,-527793,-559379,2,2,2,2
2025-09-03 13:14:56.635,-487125,-528132,-527819,-559371,2,2,2,2
2025-09-03 13:14:56.635,-487051,-528122,-527749,-575749,2,2,2,2
2025-09-03 13:14:56.636,-487185,-528253,-527885,-559499,2,2,2,2
2025-09-03 13:14:56.636,-487203,-528270,-527903,-559515,2,2,2,2
2025-09-03 13:14:56.637,-487271,-528340,-527970,-575935,2,2,2,2
2025-09-03 13:14:56.637,-487274,-528344,-527974,-575937,2,2,2,2
2025-09-03 13:14:56.637,-487228,-528365,-527992,-559605,2,2,2,2
2025-09-03 13:14:56.637,-487301,-528374,-527997,-559612,2,2,2,2
2025-09-03 13:14:56.638,-487291,-528364,-527921,-559603,2,2,2,2
2025-09-03 13:14:56.638,-470908,-528364,-527989,-559603,2,2,2,2
2025-09-03 13:14:56.638,-487318,-528131,-528074,-559629,2,2,2,2
2025-09-03 13:14:56.638,-479208,-528148,-528027,-576065,2,2,2,2
2025-09-03 13:14:56.639,-487397,-528180,-528026,-559647,2,2,2,2
2025-09-03 13:14:56.639,-487381,-528135,-528079,-559637,2,2,2,2
2025-09-03 13:14:56.639,-487295,-528369,-527994,-576002,2,2,2,2
2025-09-03 13:14:56.639,-470857,-528286,-527975,-559597,2,2,2,2
2025-09-03 13:14:56.640,-479004,-528336,-527893,-559580,2,2,2,2
2025-09-03 13:14:56.640,-479000,-528334,-527888,-559576,2,2,2,2
2025-09-03 13:14:56.640,-487186,-528266,-527887,-559512,2,2,2,2
2025-09-03 13:14:56.640,-487186,-528330,-527890,-575897,2,2,2,2
2025-09-03 13:14:56.641,-487185,-528264,-527886,-559513,2,2,2,2
2025-09-03 13:14:56.641,-487166,-528243,-527866,-559491,2,2,2,2
2025-09-03 13:14:56.641,-470770,-528232,-527853,-559416,2,2,2,2
2025-09-03 13:14:56.642,-487147,-528164,-527849,-575856,2,2,2,2
2025-09-03 13:14:56.642,-487140,-528158,-527842,-559466,2,2,2,2
2025-09-03 13:14:56.642,-487137,-528153,-527773,-575811,2,2,2,2
2025-09-03 13:14:56.642,-487143,-528156,-527806,-559462,2,2,2,2
2025-09-03 13:14:56.643,-487148,-528157,-527841,-575843,2,2,2,2
2025-09-03 13:14:56.643,-487150,-528162,-527848,-575845,2,2,2,2
2025-09-03 13:14:56.643,-470727,-528156,-527841,-559458,2,2,2,2
2025-09-03 13:14:56.644,-486968,-528117,-527672,-559615,2,2,2,2
2025-09-03 13:14:56.644,-486957,-528106,-527664,-559601,2,2,2,2
2025-09-03 13:14:56.644,-487020,-528070,-527727,-575989,2,2,2,2
2025-09-03 13:14:56.644,-470592,-528027,-527716,-559595,2,2,2,2
2025-09-03 13:14:56.645,-470641,-528109,-527730,-559607,2,2,2,2
2025-09-03 13:14:56.645,-486971,-528121,-527678,-559614,2,2,2,2
2025-09-03 13:14:56.646,-487037,-528121,-527744,-575747,2,2,2,2
2025-09-03 13:14:56.646,-487039,-528128,-527748,-575750,2,2,2,2
2025-09-03 13:14:56.646,-487105,-528129,-527750,-559367,2,2,2,2
2025-09-03 13:14:56.646,-487023,-528112,-527731,-559605,2,2,2,2
2025-09-03 13:14:56.647,-470597,-528103,-527721,-559595,2,2,2,2
2025-09-03 13:14:56.647,-470602,-528103,-527726,-559595,2,2,2,2
2025-09-03 13:14:56.647,-487025,-528109,-527669,-559603,2,2,2,2
2025-09-03 13:14:56.647,-478849,-528119,-527742,-576000,2,2,2,2
2025-09-03 13:14:56.648,-487041,-528119,-527739,-576000,2,2,2,2
2025-09-03 13:14:56.648,-487031,-528078,-527730,-559607,2,2,2,2
2025-09-03 13:14:56.648,-470606,-528103,-527728,-559600,2,2,2,2
2025-09-03 13:14:56.648,-487014,-528098,-527659,-559595,2,2,2,2
2025-09-03 13:14:56.649,-470557,-528027,-527714,-559588,2,2,2,2
2025-09-03 13:14:56.649,-470547,-528083,-527643,-559580,2,2,2,2
2025-09-03 13:14:56.649,-486942,-528029,-527654,-559589,2,2,2,2
2025-09-03 13:14:56.649,-487021,-528107,-527728,-575983,2,2,2,2
2025-09-03 13:14:56.650,-486968,-528113,-527737,-559610,2,2,2,2
2025-09-03 13:14:56.650,-486974,-528117,-527740,-559614,2,2,2,2
2025-09-03 13:14:56.650,-487033,-528111,-527737,-559611,2,2,2,2
2025-09-03 13:14:56.650,-470646,-528104,-527726,-559605,2,2,2,2
2025-09-03 13:14:56.651,-487027,-528099,-527655,-559601,2,2,2,2
2025-09-03 13:14:56.651,-486952,-528024,-527644,-559589,2,2,2,2
2025-09-03 13:14:56.651,-487012,-528023,-527642,-559589,2,2,2,2
2025-09-03 13:14:56.651,-486944,-528018,-527669,-559520,2,2,2,2
2025-09-03 13:14:56.652,-486938,-528071,-527628,-575896,2,2,2,2
2025-09-03 13:14:56.652,-470579,-528002,-527626,-559571,2,2,2,2
2025-09-03 13:14:56.652,-486929,-528004,-527628,-559505,2,2,2,2
2025-09-03 13:14:56.652,-486942,-528083,-527641,-575932,2,2,2,2
2025-09-03 13:14:56.653,-486944,-528018,-527644,-559517,2,2,2,2
2025-09-03 13:14:56.653,-486941,-528014,-527642,-559512,2,2,2,2
2025-09-03 13:14:56.653,-486927,-527933,-527627,-575881,2,2,2,2
2025-09-03 13:14:56.653,-470535,-527988,-527617,-559488,2,2,2,2
2025-09-03 13:14:56.654,-487163,-527978,-527860,-559477,2,2,2,2
2025-09-03 13:14:56.654,-470764,-527904,-527845,-559397,2,2,2,2
2025-09-03 13:14:56.654,-487139,-527895,-527835,-559390,2,2,2,2
2025-09-03 13:14:56.655,-478865,-527875,-527755,-575760,2,2,2,2
2025-09-03 13:14:56.655,-470729,-528124,-527747,-559369,2,2,2,2
2025-09-03 13:14:56.655,-470654,-528111,-527735,-559354,2,2,2,2
2025-09-03 13:14:56.656,-470651,-528107,-527732,-559345,2,2,2,2
2025-09-03 13:14:56.656,-487030,-528104,-527663,-559339,2,2,2,2
2025-09-03 13:14:56.656,-487013,-528093,-527714,-575678,2,2,2,2
2025-09-03 13:14:56.656,-486946,-528021,-527677,-559256,2,2,2,2
2025-09-03 13:14:56.657,-487023,-528066,-527719,-575715,2,2,2,2
2025-09-03 13:14:56.657,-487052,-527873,-527750,-575747,2,2,2,2
2025-09-03 13:14:56.657,-470719,-527888,-527767,-559378,2,2,2,2
2025-09-03 13:14:56.657,-487154,-527972,-527850,-559463,2,2,2,2
2025-09-03 13:14:56.658,-470762,-527903,-527844,-559395,2,2,2,2
2025-09-03 13:14:56.658,-487141,-527900,-527806,-559391,2,2,2,2
2025-09-03 13:14:56.658,-487141,-527933,-527773,-575843,2,2,2,2
2025-09-03 13:14:56.658,-470719,-527891,-527763,-559390,2,2,2,2
2025-09-03 13:14:56.659,-478877,-527887,-527763,-575806,2,2,2,2
2025-09-03 13:14:56.659,-470780,-527928,-527862,-559554,2,2,2,2
2025-09-03 13:14:56.659,-486935,-528017,-527631,-559514,2,2,2,2
2025-09-03 13:14:56.660,-470558,-528023,-527639,-559518,2,2,2,2
2025-09-03 13:14:56.660,-486936,-528082,-527636,-575926,2,2,2,2
2025-09-03 13:14:56.660,-486941,-528020,-527672,-559513,2,2,2,2
2025-09-03 13:14:56.660,-486931,-528011,-527630,-559502,2,2,2,2
2025-09-03 13:14:56.661,-486913,-527931,-527872,-575873,2,2,2,2
2025-09-03 13:14:56.661,-470771,-527985,-527861,-559414,2,2,2,2
2025-09-03 13:14:56.661,-487150,-527981,-527860,-559476,2,2,2,2
2025-09-03 13:14:56.661,-478971,-527929,-527618,-575876,2,2,2,2
2025-09-03 13:14:56.662,-487165,-527994,-527622,-559494,2,2,2,2
2025-09-03 13:14:56.662,-487161,-527992,-527618,-559494,2,2,2,2
2025-09-03 13:14:56.662,-470735,-527979,-527860,-559417,2,2,2,2
2025-09-03 13:14:56.662,-487157,-527984,-527864,-559486,2,2,2,2
2025-09-03 13:14:56.663,-478970,-527927,-527869,-575939,2,2,2,2
2025-09-03 13:14:56.663,-478966,-527923,-527865,-559553,2,2,2,2
2025-09-03 13:14:56.663,-487150,-527971,-527853,-559476,2,2,2,2
2025-09-03 13:14:56.663,-487155,-527910,-527857,-575863,2,2,2,2
2025-09-03 13:14:56.664,-487158,-527912,-527857,-575864,2,2,2,2
2025-09-03 13:14:56.664,-487150,-527970,-527849,-559472,2,2,2,2
2025-09-03 13:14:56.664,-470672,-528122,-527749,-559370,2,2,2,2
2025-09-03 13:14:56.665,-470653,-528103,-527733,-559355,2,2,2,2
2025-09-03 13:14:56.665,-487027,-528099,-527662,-559348,2,2,2,2
2025-09-03 13:14:56.665,-487016,-528089,-527719,-575688,2,2,2,2
2025-09-03 13:14:56.665,-486947,-528022,-527686,-559329,2,2,2,2
2025-09-03 13:14:56.666,-487020,-528066,-527729,-559336,2,2,2,2
2025-09-03 13:14:56.666,-470652,-528115,-527745,-559352,2,2,2,2
2025-09-03 13:14:56.666,-487044,-528127,-527817,-559361,2,2,2,2
2025-09-03 13:14:56.666,-487044,-528125,-527750,-575744,2,2,2,2
2025-09-03 13:14:56.667,-470666,-528127,-527753,-559359,2,2,2,2
2025-09-03 13:14:56.667,-487115,-527873,-527819,-559362,2,2,2,2
2025-09-03 13:14:56.667,-487057,-527879,-527762,-575757,2,2,2,2
2025-09-03 13:14:56.667,-470671,-527882,-527763,-559377,2,2,2,2
2025-09-03 13:14:56.668,-470657,-528128,-527743,-559366,2,2,2,2
2025-09-03 13:14:56.668,-487112,-527878,-527812,-559373,2,2,2,2
2025-09-03 13:14:56.669,-487064,-527893,-527760,-575800,2,2,2,2
2025-09-03 13:14:56.669,-487150,-527916,-527847,-575820,2,2,2,2
2025-09-03 13:14:56.669,-487159,-527988,-527824,-559471,2,2,2,2
2025-09-03 13:14:56.669,-487150,-527979,-527853,-559460,2,2,2,2
2025-09-03 13:14:56.670,-470713,-527892,-527762,-559374,2,2,2,2
2025-09-03 13:14:56.670,-487053,-528127,-527680,-559358,2,2,2,2
2025-09-03 13:14:56.670,-487045,-528118,-527733,-575733,2,2,2,2
2025-09-03 13:14:56.670,-487105,-528106,-527690,-559341,2,2,2,2
2025-09-03 13:14:56.671,-470668,-528120,-527734,-559357,2,2,2,2
2025-09-03 13:14:56.671,-487062,-527876,-527745,-575752,2,2,2,2
2025-09-03 13:14:56.671,-470722,-527895,-527762,-559384,2,2,2,2
2025-09-03 13:14:56.671,-487159,-527979,-527844,-559472,2,2,2,2
2025-09-03 13:14:56.672,-478968,-527909,-527776,-575793,2,2,2,2
2025-09-03 13:14:56.672,-470763,-527895,-527765,-559395,2,2,2,2
2025-09-03 13:14:56.672,-487137,-527884,-527824,-559387,2,2,2,2
2025-09-03 13:14:56.672,-487137,-527880,-527761,-575765,2,2,2,2
2025-09-03 13:14:56.673,-487136,-527882,-527759,-559375,2,2,2,2
2025-09-03 13:14:56.673,-487167,-527980,-527861,-559468,2,2,2,2
2025-09-03 13:14:56.673,-486918,-527987,-527867,-559471,2,2,2,2
2025-09-03 13:14:56.674,-486923,-527927,-527869,-575860,2,2,2,2
2025-09-03 13:14:56.674,-486915,-527925,-527865,-575824,2,2,2,2
2025-09-03 13:14:56.674,-487166,-527983,-527859,-559466,2,2,2,2
2025-09-03 13:14:56.675,-487148,-527899,-527846,-559387,2,2,2,2
2025-09-03 13:14:56.675,-470730,-527897,-527845,-559385,2,2,2,2
2025-09-03 13:14:56.675,-487145,-527892,-527841,-559382,2,2,2,2
2025-09-03 13:14:56.675,-487070,-527876,-527761,-575754,2,2,2,2
2025-09-03 13:14:56.676,-487071,-527876,-527761,-559373,2,2,2,2
2025-09-03 13:14:56.676,-487143,-527882,-527833,-559382,2,2,2,2
2025-09-03 13:14:56.676,-487143,-527892,-527775,-575775,2,2,2,2
2025-09-03 13:14:56.676,-470717,-527887,-527765,-559381,2,2,2,2
2025-09-03 13:14:56.677,-487129,-527886,-527762,-559380,2,2,2,2
2025-09-03 13:14:56.677,-470764,-527971,-527847,-559404,2,2,2,2
2025-09-03 13:14:56.677,-487139,-527900,-527835,-559459,2,2,2,2
2025-09-03 13:14:56.678,-478947,-527894,-527765,-575809,2,2,2,2
2025-09-03 13:14:56.678,-470758,-527898,-527766,-559392,2,2,2,2
2025-09-03 13:14:56.678,-470773,-527975,-527850,-559403,2,2,2,2
2025-09-03 13:14:56.679,-470770,-527970,-527843,-559464,2,2,2,2
2025-09-03 13:14:56.679,-487140,-527895,-527833,-559388,2,2,2,2
2025-09-03 13:14:56.679,-487072,-527890,-527765,-575799,2,2,2,2
2025-09-03 13:14:56.679,-487137,-527892,-527796,-559380,2,2,2,2
2025-09-03 13:14:56.680,-487065,-527885,-527758,-575755,2,2,2,2
2025-09-03 13:14:56.680,-487070,-527926,-527767,-575764,2,2,2,2
2025-09-03 13:14:56.680,-470733,-527974,-527848,-559395,2,2,2,2
2025-09-03 13:14:56.680,-487146,-527970,-527850,-559392,2,2,2,2
2025-09-03 13:14:56.681,-470763,-527974,-527850,-559390,2,2,2,2
2025-09-03 13:14:56.681,-470683,-527893,-527768,-559373,2,2,2,2
2025-09-03 13:14:56.681,-487111,-527873,-527811,-559355,2,2,2,2
2025-09-03 13:14:56.681,-487045,-527874,-527745,-575736,2,2,2,2
2025-09-03 13:14:56.682,-470657,-527873,-527756,-559356,2,2,2,2
2025-09-03 13:14:56.682,-486975,-528123,-527814,-559350,2,2,2,2
2025-09-03 13:14:56.683,-487042,-528122,-527812,-559351,2,2,2,2
2025-09-03 13:14:56.683,-487043,-528121,-527748,-575735,2,2,2,2
2025-09-03 13:14:56.683,-486968,-528109,-527735,-559337,2,2,2,2
2025-09-03 13:14:56.683,-487022,-528099,-527724,-559330,2,2,2,2
2025-09-03 13:14:56.684,-487019,-528095,-527721,-575647,2,2,2,2
2025-09-03 13:14:56.684,-470590,-528018,-527642,-559318,2,2,2,2
2025-09-03 13:14:56.684,-486933,-528012,-527632,-559244,2,2,2,2
2025-09-03 13:14:56.684,-478735,-528070,-527627,-575621,2,2,2,2
2025-09-03 13:14:56.685,-486937,-528015,-527635,-559245,2,2,2,2
2025-09-03 13:14:56.685,-486953,-528031,-527651,-559261,2,2,2,2
2025-09-03 13:14:56.685,-487021,-528100,-527722,-575718,2,2,2,2
2025-09-03 13:14:56.685,-487016,-528032,-527655,-559330,2,2,2,2
2025-09-03 13:14:56.686,-478752,-528088,-527715,-575704,2,2,2,2
2025-09-03 13:14:56.686,-478745,-528077,-527642,-559313,2,2,2,2
2025-09-03 13:14:56.686,-486931,-528006,-527633,-559241,2,2,2,2
2025-09-03 13:14:56.686,-486911,-527985,-527611,-559220,2,2,2,2
2025-09-03 13:14:56.687,-486899,-527975,-527599,-559208,2,2,2,2
2025-09-03 13:14:56.687,-486893,-527972,-527592,-559203,2,2,2,2
2025-09-03 13:14:56.687,-470509,-527975,-527599,-559146,2,2,2,2
2025-09-03 13:14:56.688,-470523,-527991,-527614,-559160,2,2,2,2
2025-09-03 13:14:56.688,-486929,-528015,-527633,-559245,2,2,2,2
2025-09-03 13:14:56.688,-487014,-528099,-527718,-575681,2,2,2,2
2025-09-03 13:14:56.688,-486973,-528122,-527744,-559352,2,2,2,2
2025-09-03 13:14:56.689,-487051,-527876,-527756,-559362,2,2,2,2
2025-09-03 13:14:56.689,-470683,-527888,-527770,-559379,2,2,2,2
2025-09-03 13:14:56.689,-487143,-527903,-527843,-559392,2,2,2,2
2025-09-03 13:14:56.690,-487159,-527982,-527859,-559471,2,2,2,2
2025-09-03 13:14:56.690,-487142,-527901,-527846,-559392,2,2,2,2
2025-09-03 13:14:56.690,-487064,-527922,-527769,-575762,2,2,2,2
2025-09-03 13:14:56.690,-487070,-527902,-527776,-575768,2,2,2,2
2025-09-03 13:14:56.691,-487160,-527994,-527864,-559472,2,2,2,2
2025-09-03 13:14:56.691,-470770,-527988,-527858,-559404,2,2,2,2
2025-09-03 13:14:56.691,-487151,-527982,-527852,-559464,2,2,2,2
2025-09-03 13:14:56.692,-487163,-527922,-527860,-575858,2,2,2,2
2025-09-03 13:14:56.692,-470547,-528007,-527628,-559497,2,2,2,2
2025-09-03 13:14:56.692,-486948,-528026,-527675,-559512,2,2,2,2
2025-09-03 13:14:56.692,-487010,-528024,-527640,-559508,2,2,2,2
2025-09-03 13:14:56.693,-470541,-528008,-527622,-559553,2,2,2,2
2025-09-03 13:14:56.693,-486915,-527999,-527869,-559481,2,2,2,2
2025-09-03 13:14:56.693,-487150,-527918,-527850,-575813,2,2,2,2
2025-09-03 13:14:56.693,-478948,-527907,-527845,-575773,2,2,2,2
2025-09-03 13:14:56.694,-470766,-527980,-527856,-559397,2,2,2,2
2025-09-03 13:14:56.694,-487146,-527945,-527853,-575776,2,2,2,2
2025-09-03 13:14:56.694,-470715,-527895,-527773,-559374,2,2,2,2
2025-09-03 13:14:56.694,-470745,-527889,-527772,-559367,2,2,2,2
2025-09-03 13:14:56.695,-478872,-527888,-527770,-575753,2,2,2,2
2025-09-03 13:14:56.695,-470666,-527876,-527755,-559354,2,2,2,2
2025-09-03 13:14:56.695,-487110,-528127,-527815,-559353,2,2,2,2
2025-09-03 13:14:56.695,-487061,-527886,-527760,-575750,2,2,2,2
2025-09-03 13:14:56.696,-487115,-527879,-527749,-559360,2,2,2,2
2025-09-03 13:14:56.696,-478840,-528115,-527732,-559349,2,2,2,2
2025-09-03 13:14:56.696,-470644,-528107,-527728,-559345,2,2,2,2
2025-09-03 13:14:56.697,-487022,-528100,-527659,-559340,2,2,2,2
2025-09-03 13:14:56.697,-487017,-528096,-527720,-575685,2,2,2,2
2025-09-03 13:14:56.697,-486964,-528106,-527727,-559342,2,2,2,2
2025-09-03 13:14:56.697,-486968,-528109,-527694,-559346,2,2,2,2
2025-09-03 13:14:56.698,-486952,-528031,-527648,-559329,2,2,2,2
2025-09-03 13:14:56.698,-470599,-528028,-527644,-559326,2,2,2,2
2025-09-03 13:14:56.698,-486944,-528019,-527638,-559251,2,2,2,2
2025-09-03 13:14:56.699,-486938,-528011,-527639,-559250,2,2,2,2
2025-09-03 13:14:56.699,-486930,-527998,-527628,-559241,2,2,2,2
2025-09-03 13:14:56.699,-486926,-527933,-527625,-575622,2,2,2,2
2025-09-03 13:14:56.699,-486934,-528067,-527631,-575627,2,2,2,2
2025-09-03 13:14:56.700,-478830,-528091,-527717,-575713,2,2,2,2
2025-09-03 13:14:56.700,-470639,-528029,-527719,-559327,2,2,2,2
2025-09-03 13:14:56.700,-486943,-528022,-527645,-559251,2,2,2,2
2025-09-03 13:14:56.701,-478746,-528085,-527644,-575632,2,2,2,2
2025-09-03 13:14:56.701,-486935,-528020,-527677,-559246,2,2,2,2
2025-09-03 13:14:56.701,-487011,-528058,-527645,-559253,2,2,2,2
2025-09-03 13:14:56.702,-487032,-528111,-527661,-559342,2,2,2,2
2025-09-03 13:14:56.702,-487049,-527877,-527677,-559361,2,2,2,2
2025-09-03 13:14:56.702,-487046,-528128,-527734,-575738,2,2,2,2
2025-09-03 13:14:56.702,-478853,-528128,-527738,-575737,2,2,2,2
2025-09-03 13:14:56.703,-487042,-528125,-527737,-575731,2,2,2,2
2025-09-03 13:14:56.703,-487025,-528073,-527719,-575643,2,2,2,2
2025-09-03 13:14:56.703,-470605,-528101,-527648,-559320,2,2,2,2
2025-09-03 13:14:56.703,-486963,-528104,-527715,-559260,2,2,2,2
2025-09-03 13:14:56.704,-470559,-528024,-527638,-559310,2,2,2,2
2025-09-03 13:14:56.704,-486918,-527997,-527616,-559226,2,2,2,2
2025-09-03 13:14:56.704,-486915,-527994,-527609,-559223,2,2,2,2
2025-09-03 13:14:56.704,-486903,-527920,-527598,-575595,2,2,2,2
2025-09-03 13:14:56.705,-478695,-527902,-527519,-575515,2,2,2,2
2025-09-03 13:14:56.705,-470411,-527874,-527489,-559360,2,2,2,2
2025-09-03 13:14:56.705,-470419,-527880,-527495,-559110,2,2,2,2
2025-09-03 13:14:56.706,-470494,-527885,-527499,-559113,2,2,2,2
2025-09-03 13:14:56.706,-486881,-527890,-527503,-575502,2,2,2,2
2025-09-03 13:14:56.706,-478690,-527893,-527510,-575505,2,2,2,2
2025-09-03 13:14:56.706,-486890,-527969,-527556,-559136,2,2,2,2
2025-09-03 13:14:56.707,-486902,-527914,-527602,-575597,2,2,2,2
2025-09-03 13:14:56.707,-470521,-527981,-527606,-559152,2,2,2,2
2025-09-03 13:14:56.707,-486901,-527981,-527603,-559214,2,2,2,2
2025-09-03 13:14:56.708,-486898,-527978,-527596,-559214,2,2,2,2
2025-09-03 13:14:56.708,-486893,-527940,-527590,-559210,2,2,2,2
2025-09-03 13:14:56.708,-486887,-527901,-527516,-575588,2,2,2,2
2025-09-03 13:14:56.708,-470512,-527972,-527589,-559213,2,2,2,2
2025-09-03 13:14:56.709,-478709,-527920,-527598,-559159,2,2,2,2
2025-09-03 13:14:56.709,-470536,-528005,-527620,-559310,2,2,2,2
2025-09-03 13:14:56.709,-487009,-528030,-527643,-559335,2,2,2,2
2025-09-03 13:14:56.710,-487018,-528103,-527651,-559341,2,2,2,2
2025-09-03 13:14:56.710,-486969,-528114,-527726,-559351,2,2,2,2
2025-09-03 13:14:56.710,-487109,-528119,-527732,-559356,2,2,2,2
2025-09-03 13:14:56.710,-487035,-528080,-527726,-559349,2,2,2,2
2025-09-03 13:14:56.711,-470647,-528113,-527724,-559348,2,2,2,2
2025-09-03 13:14:56.711,-487034,-528114,-527730,-575737,2,2,2,2
2025-09-03 13:14:56.711,-478836,-528102,-527718,-559347,2,2,2,2
2025-09-03 13:14:56.712,-487012,-528051,-527634,-559329,2,2,2,2
2025-09-03 13:14:56.712,-470627,-528011,-527628,-559322,2,2,2,2
2025-09-03 13:14:56.712,-470598,-528008,-527627,-559253,2,2,2,2
2025-09-03 13:14:56.713,-486940,-528000,-527619,-559244,2,2,2,2
2025-09-03 13:14:56.713,-486931,-527996,-527608,-559235,2,2,2,2
2025-09-03 13:14:56.713,-486935,-528000,-527613,-559239,2,2,2,2
2025-09-03 13:14:56.713,-486931,-527931,-527612,-575618,2,2,2,2
2025-09-03 13:14:56.714,-487040,-528070,-527723,-559344,2,2,2,2
2025-09-03 13:14:56.714,-470649,-528028,-527715,-559334,2,2,2,2
2025-09-03 13:14:56.715,-487020,-528072,-527636,-575669,2,2,2,2
2025-09-03 13:14:56.715,-487014,-528067,-527631,-575629,2,2,2,2
2025-09-03 13:14:56.715,-478826,-528072,-527635,-575699,2,2,2,2
2025-09-03 13:14:56.715,-486959,-528015,-527642,-559257,2,2,2,2
2025-09-03 13:14:56.716,-487031,-528030,-527655,-559330,2,2,2,2
2025-09-03 13:14:56.716,-470644,-528032,-527713,-559327,2,2,2,2
2025-09-03 13:14:56.716,-487021,-528031,-527642,-559263,2,2,2,2
2025-09-03 13:14:56.716,-478831,-528095,-527644,-575715,2,2,2,2
2025-09-03 13:14:56.717,-487029,-528066,-527648,-575718,2,2,2,2
2025-09-03 13:14:56.717,-487026,-528063,-527647,-575713,2,2,2,2
2025-09-03 13:14:56.717,-487029,-528101,-527717,-575714,2,2,2,2
2025-09-03 13:14:56.717,-470722,-528116,-527726,-559341,2,2,2,2
2025-09-03 13:14:56.718,-487121,-527879,-527739,-559361,2,2,2,2
2025-09-03 13:14:56.718,-470684,-527888,-527747,-559367,2,2,2,2
2025-09-03 13:14:56.718,-470674,-527882,-527744,-559360,2,2,2,2
2025-09-03 13:14:56.718,-487048,-527875,-527676,-559355,2,2,2,2
2025-09-03 13:14:56.719,-487109,-528128,-527736,-559349,2,2,2,2
2025-09-03 13:14:56.719,-486969,-528118,-527691,-559338,2,2,2,2
2025-09-03 13:14:56.719,-486960,-528106,-527680,-559264,2,2,2,2
2025-09-03 13:14:56.719,-487026,-528073,-527715,-575713,2,2,2,2
2025-09-03 13:14:56.720,-487034,-528113,-527656,-559337,2,2,2,2
2025-09-03 13:14:56.720,-487037,-528116,-527660,-559342,2,2,2,2
2025-09-03 13:14:56.720,-478839,-528108,-527716,-575687,2,2,2,2
2025-09-03 13:14:56.720,-486963,-528098,-527678,-559263,2,2,2,2
2025-09-03 13:14:56.721,-486952,-528025,-527637,-559257,2,2,2,2
2025-09-03 13:14:56.721,-470584,-528012,-527624,-559307,2,2,2,2
2025-09-03 13:14:56.721,-470552,-528016,-527628,-559243,2,2,2,2
2025-09-03 13:14:56.722,-478746,-528081,-527627,-559307,2,2,2,2
2025-09-03 13:14:56.722,-486936,-528011,-527624,-559238,2,2,2,2
2025-09-03 13:14:56.722,-486926,-528001,-527614,-559227,2,2,2,2
2025-09-03 13:14:56.722,-486913,-527927,-527604,-575566,2,2,2,2
2025-09-03 13:14:56.723,-486912,-527989,-527605,-559218,2,2,2,2
2025-09-03 13:14:56.723,-486914,-527990,-527609,-559225,2,2,2,2
2025-09-03 13:14:56.723,-486905,-527949,-527603,-559219,2,2,2,2
2025-09-03 13:14:56.723,-470530,-527985,-527608,-559163,2,2,2,2
2025-09-03 13:14:56.724,-478728,-527933,-527621,-575618,2,2,2,2
2025-09-03 13:14:56.724,-486931,-528009,-527628,-559242,2,2,2,2
2025-09-03 13:14:56.724,-486934,-528012,-527630,-559244,2,2,2,2
2025-09-03 13:14:56.724,-486940,-528012,-527635,-559246,2,2,2,2
2025-09-03 13:14:56.725,-470595,-528017,-527639,-559250,2,2,2,2
2025-09-03 13:14:56.725,-470593,-528015,-527642,-559250,2,2,2,2
2025-09-03 13:14:56.725,-478734,-527936,-527623,-575682,2,2,2,2
2025-09-03 13:14:56.726,-486927,-527999,-527621,-575615,2,2,2,2
2025-09-03 13:14:56.726,-486925,-527997,-527620,-559230,2,2,2,2
2025-09-03 13:14:56.726,-486939,-528073,-527633,-575626,2,2,2,2
2025-09-03 13:14:56.726,-486941,-528010,-527630,-559243,2,2,2,2
2025-09-03 13:14:56.727,-470549,-528001,-527621,-559297,2,2,2,2
2025-09-03 13:14:56.727,-470541,-527996,-527614,-559162,2,2,2,2
2025-09-03 13:14:56.727,-470581,-528002,-527617,-559168,2,2,2,2
2025-09-03 13:14:56.727,-486940,-528012,-527625,-559242,2,2,2,2
2025-09-03 13:14:56.728,-486941,-528013,-527626,-559243,2,2,2,2
2025-09-03 13:14:56.728,-478817,-528083,-527635,-559314,2,2,2,2
2025-09-03 13:14:56.728,-486948,-528020,-527635,-559253,2,2,2,2
2025-09-03 13:14:56.728,-486939,-528007,-527626,-575626,2,2,2,2
2025-09-03 13:14:56.729,-470543,-527991,-527611,-559225,2,2,2,2
2025-09-03 13:14:56.729,-486926,-527992,-527607,-559221,2,2,2,2
2025-09-03 13:14:56.729,-478737,-527925,-527604,-575539,2,2,2,2
2025-09-03 13:14:56.729,-486923,-527985,-527600,-559215,2,2,2,2
2025-09-03 13:14:56.730,-486936,-527935,-527613,-575609,2,2,2,2
2025-09-03 13:14:56.730,-486939,-528072,-527622,-575617,2,2,2,2
2025-09-03 13:14:56.730,-470558,-528012,-527626,-559239,2,2,2,2
2025-09-03 13:14:56.731,-486938,-528014,-527625,-559241,2,2,2,2
2025-09-03 13:14:56.731,-470560,-528021,-527632,-559313,2,2,2,2
2025-09-03 13:14:56.731,-487024,-528104,-527651,-559264,2,2,2,2
2025-09-03 13:14:56.731,-487034,-528114,-527724,-575692,2,2,2,2
2025-09-03 13:14:56.732,-478840,-528106,-527716,-575717,2,2,2,2
2025-09-03 13:14:56.732,-486973,-528108,-527655,-559334,2,2,2,2
2025-09-03 13:14:56.732,-487064,-527879,-527743,-575738,2,2,2,2
2025-09-03 13:14:56.732,-470719,-527887,-527752,-559363,2,2,2,2
2025-09-03 13:14:56.733,-487142,-527895,-527822,-559371,2,2,2,2
2025-09-03 13:14:56.733,-478948,-527891,-527758,-575752,2,2,2,2
2025-09-03 13:14:56.733,-470754,-527891,-527756,-559366,2,2,2,2
2025-09-03 13:14:56.733,-487141,-527896,-527829,-559372,2,2,2,2
2025-09-03 13:14:56.734,-470731,-527902,-527772,-559377,2,2,2,2
2025-09-03 13:14:56.734,-470761,-527900,-527766,-559376,2,2,2,2
2025-09-03 13:14:56.734,-478952,-527894,-527761,-559367,2,2,2,2
2025-09-03 13:14:56.735,-487062,-527880,-527680,-559349,2,2,2,2
2025-09-03 13:14:56.735,-487043,-528114,-527655,-559262,2,2,2,2
2025-09-03 13:14:56.735,-487024,-528091,-527637,-575627,2,2,2,2
2025-09-03 13:14:56.735,-486941,-528006,-527616,-559224,2,2,2,2
2025-09-03 13:14:56.736,-486920,-527988,-527594,-559207,2,2,2,2
2025-09-03 13:14:56.736,-470514,-527903,-527508,-559124,2,2,2,2
2025-09-03 13:14:56.736,-470477,-527900,-527501,-559121,2,2,2,2
2025-09-03 13:14:56.736,-486894,-527970,-527571,-559128,2,2,2,2
2025-09-03 13:14:56.737,-470515,-527914,-527519,-559143,2,2,2,2
2025-09-03 13:14:56.737,-486905,-527982,-527557,-559216,2,2,2,2
2025-09-03 13:14:56.737,-486919,-527997,-527602,-559230,2,2,2,2
2025-09-03 13:14:56.737,-486934,-528074,-527613,-575628,2,2,2,2
2025-09-03 13:14:56.738,-478747,-528079,-527617,-559307,2,2,2,2
2025-09-03 13:14:56.738,-486942,-528019,-527620,-559246,2,2,2,2
2025-09-03 13:14:56.739,-470604,-528031,-527637,-559263,2,2,2,2
2025-09-03 13:14:56.739,-487026,-528104,-527647,-575721,2,2,2,2
2025-09-03 13:14:56.739,-486968,-528111,-527717,-559341,2,2,2,2
2025-09-03 13:14:56.740,-487049,-528124,-527730,-575736,2,2,2,2
2025-09-03 13:14:56.740,-470671,-527874,-527736,-559355,2,2,2,2
2025-09-03 13:14:56.740,-487056,-527877,-527677,-559355,2,2,2,2
2025-09-03 13:14:56.740,-487052,-528127,-527739,-575730,2,2,2,2
2025-09-03 13:14:56.741,-487043,-528120,-527737,-559339,2,2,2,2
2025-09-03 13:14:56.741,-487114,-527874,-527680,-559345,2,2,2,2
2025-09-03 13:14:56.741,-487050,-527875,-527741,-575726,2,2,2,2
2025-09-03 13:14:56.741,-470660,-527874,-527737,-559335,2,2,2,2
2025-09-03 13:14:56.742,-478858,-527879,-527740,-575696,2,2,2,2
2025-09-03 13:14:56.742,-470635,-528101,-527643,-559319,2,2,2,2
2025-09-03 13:14:56.743,-487015,-528100,-527639,-559251,2,2,2,2
2025-09-03 13:14:56.743,-487010,-528093,-527634,-575630,2,2,2,2
2025-09-03 13:14:56.743,-470562,-528025,-527633,-559242,2,2,2,2
2025-09-03 13:14:56.743,-470636,-528100,-527638,-559317,2,2,2,2
2025-09-03 13:14:56.744,-486947,-528024,-527624,-559247,2,2,2,2
2025-09-03 13:14:56.744,-486937,-528008,-527609,-559233,2,2,2,2
2025-09-03 13:14:56.744,-486929,-528068,-527602,-575606,2,2,2,2
2025-09-03 13:14:56.744,-486918,-527999,-527564,-559215,2,2,2,2
2025-09-03 13:14:56.745,-486905,-527985,-527589,-559202,2,2,2,2
2025-09-03 13:14:56.745,-486914,-527987,-527591,-575588,2,2,2,2
2025-09-03 13:14:56.745,-470524,-527977,-527586,-559134,2,2,2,2
2025-09-03 13:14:56.746,-486888,-527893,-527566,-559116,2,2,2,2
2025-09-03 13:14:56.746,-470428,-527882,-527492,-559106,2,2,2,2
2025-09-03 13:14:56.746,-486871,-527874,-527486,-559356,2,2,2,2
2025-09-03 13:14:56.746,-486875,-527880,-527554,-559106,2,2,2,2
2025-09-03 13:14:56.746,-486889,-527895,-527504,-575503,2,2,2,2
2025-09-03 13:14:56.747,-486941,-528015,-527625,-559237,2,2,2,2
2025-09-03 13:14:56.748,-470559,-528016,-527624,-559302,2,2,2,2
2025-09-03 13:14:56.748,-487012,-528086,-527631,-575629,2,2,2,2
2025-09-03 13:14:56.748,-487014,-528089,-527640,-575665,2,2,2,2
2025-09-03 13:14:56.748,-486948,-528026,-527640,-559250,2,2,2,2
2025-09-03 13:14:56.749,-486940,-528021,-527630,-559243,2,2,2,2
2025-09-03 13:14:56.749,-486938,-528019,-527632,-559238,2,2,2,2
2025-09-03 13:14:56.749,-486939,-528022,-527630,-559240,2,2,2,2
2025-09-03 13:14:56.749,-487017,-528101,-527643,-559252,2,2,2,2
2025-09-03 13:14:56.749,-478841,-528116,-527720,-575681,2,2,2,2
2025-09-03 13:14:56.750,-487042,-528124,-527729,-559339,2,2,2,2
2025-09-03 13:14:56.750,-487107,-528128,-527667,-559344,2,2,2,2
2025-09-03 13:14:56.750,-487052,-527876,-527735,-575735,2,2,2,2
2025-09-03 13:14:56.751,-470668,-527873,-527732,-559350,2,2,2,2
2025-09-03 13:14:56.751,-487056,-527876,-527743,-575733,2,2,2,2
2025-09-03 13:14:56.751,-487045,-528121,-527671,-559334,2,2,2,2
2025-09-03 13:14:56.752,-487032,-528116,-527661,-559262,2,2,2,2
2025-09-03 13:14:56.752,-470574,-528108,-527716,-559257,2,2,2,2
2025-09-03 13:14:56.752,-478832,-528111,-527720,-575679,2,2,2,2
2025-09-03 13:14:56.752,-487124,-527888,-527754,-559361,2,2,2,2
2025-09-03 13:14:56.752,-487146,-527937,-527773,-559379,2,2,2,2
2025-09-03 13:14:56.753,-487163,-527916,-527849,-575774,2,2,2,2
2025-09-03 13:14:56.753,-486923,-527997,-527862,-559468,2,2,2,2
2025-09-03 13:14:56.753,-487016,-528084,-527628,-575879,2,2,2,2
2025-09-03 13:14:56.753,-486975,-528105,-527679,-559514,2,2,2,2
2025-09-03 13:14:56.754,-487109,-528114,-527656,-559587,2,2,2,2
2025-09-03 13:14:56.754,-487042,-528078,-527716,-575904,2,2,2,2
2025-09-03 13:14:56.754,-470655,-528103,-527715,-559582,2,2,2,2
2025-09-03 13:14:56.755,-478841,-528106,-527647,-575964,2,2,2,2
2025-09-03 13:14:56.755,-470641,-528098,-527637,-559575,2,2,2,2
2025-09-03 13:14:56.755,-487014,-528022,-527622,-559496,2,2,2,2
2025-09-03 13:14:56.756,-486944,-528080,-527871,-575871,2,2,2,2
2025-09-03 13:14:56.756,-470555,-528012,-527864,-559484,2,2,2,2
2025-09-03 13:14:56.756,-486919,-527997,-527814,-559471,2,2,2,2
2025-09-03 13:14:56.756,-487160,-527949,-527767,-559458,2,2,2,2
2025-09-03 13:14:56.756,-470766,-527971,-527758,-559385,2,2,2,2
2025-09-03 13:14:56.757,-487147,-527904,-527757,-575799,2,2,2,2
2025-09-03 13:14:56.757,-487154,-527907,-527764,-575805,2,2,2,2
2025-09-03 13:14:56.757,-478971,-527912,-527771,-575780,2,2,2,2
2025-09-03 13:14:56.757,-486914,-527982,-527845,-559467,2,2,2,2
2025-09-03 13:14:56.758,-486918,-527920,-527848,-575853,2,2,2,2
2025-09-03 13:14:56.758,-470540,-527991,-527856,-559413,2,2,2,2
2025-09-03 13:14:56.758,-470552,-528002,-527867,-559490,2,2,2,2
2025-09-03 13:14:56.759,-486939,-528007,-527870,-559494,2,2,2,2
2025-09-03 13:14:56.759,-486935,-528003,-527864,-559490,2,2,2,2
2025-09-03 13:14:56.759,-486932,-527933,-527857,-575871,2,2,2,2
2025-09-03 13:14:56.759,-470535,-527982,-527845,-559474,2,2,2,2
2025-09-03 13:14:56.760,-470781,-527910,-527772,-559400,2,2,2,2
2025-09-03 13:14:56.760,-478974,-527911,-527774,-559403,2,2,2,2
2025-09-03 13:14:56.760,-470535,-527979,-527847,-559415,2,2,2,2
2025-09-03 13:14:56.760,-487155,-527897,-527828,-559464,2,2,2,2
2025-09-03 13:14:56.761,-478958,-527893,-527761,-575777,2,2,2,2
2025-09-03 13:14:56.761,-487151,-527898,-527798,-559460,2,2,2,2
2025-09-03 13:14:56.762,-487139,-527922,-527756,-559387,2,2,2,2
2025-09-03 13:14:56.762,-470721,-527896,-527756,-559391,2,2,2,2
2025-09-03 13:14:56.762,-470753,-527896,-527754,-559389,2,2,2,2
2025-09-03 13:14:56.763,-487129,-527880,-527742,-559375,2,2,2,2
2025-09-03 13:14:56.763,-487148,-527927,-527756,-575775,2,2,2,2
2025-09-03 13:14:56.763,-487163,-527911,-527767,-575851,2,2,2,2
2025-09-03 13:14:56.763,-470784,-527980,-527767,-559472,2,2,2,2
2025-09-03 13:14:56.764,-487164,-527982,-527764,-559467,2,2,2,2
2025-09-03 13:14:56.764,-470762,-527902,-527747,-559386,2,2,2,2
2025-09-03 13:14:56.764,-487154,-527978,-527820,-559457,2,2,2,2
2025-09-03 13:14:56.765,-487163,-527918,-527762,-575815,2,2,2,2
2025-09-03 13:14:56.765,-478961,-527904,-527756,-575807,2,2,2,2
2025-09-03 13:14:56.765,-487157,-527974,-527797,-559458,2,2,2,2
2025-09-03 13:14:56.765,-487152,-527934,-527758,-559384,2,2,2,2
2025-09-03 13:14:56.766,-470720,-527886,-527742,-559367,2,2,2,2
2025-09-03 13:14:56.766,-487050,-528122,-527657,-559346,2,2,2,2
2025-09-03 13:14:56.766,-478858,-528124,-527719,-559344,2,2,2,2
2025-09-03 13:14:56.767,-487122,-528127,-527662,-559352,2,2,2,2
2025-09-03 13:14:56.767,-487054,-528125,-527722,-575731,2,2,2,2
2025-09-03 13:14:56.767,-487037,-528106,-527643,-559263,2,2,2,2
2025-09-03 13:14:56.768,-478843,-528110,-527643,-575716,2,2,2,2
2025-09-03 13:14:56.768,-470656,-528113,-527647,-559340,2,2,2,2
2025-09-03 13:14:56.768,-487046,-528119,-527715,-575732,2,2,2,2
2025-09-03 13:14:56.768,-487062,-527878,-527730,-575747,2,2,2,2
2025-09-03 13:14:56.769,-470741,-528128,-527724,-559358,2,2,2,2
2025-09-03 13:14:56.769,-487048,-528116,-527647,-559341,2,2,2,2
2025-09-03 13:14:56.769,-470664,-528117,-527647,-559339,2,2,2,2
2025-09-03 13:14:56.769,-470651,-528105,-527633,-559330,2,2,2,2
2025-09-03 13:14:56.769,-487014,-528021,-527611,-559245,2,2,2,2
2025-09-03 13:14:56.770,-478735,-527936,-527588,-575542,2,2,2,2
2025-09-03 13:14:56.770,-486910,-527986,-527540,-559207,2,2,2,2
2025-09-03 13:14:56.770,-486899,-527973,-527561,-559132,2,2,2,2
2025-09-03 13:14:56.771,-486892,-527939,-527494,-575513,2,2,2,2
2025-09-03 13:14:56.771,-486812,-527892,-527416,-559114,2,2,2,2
2025-09-03 13:14:56.771,-470475,-527877,-527467,-559351,2,2,2,2
2025-09-03 13:14:56.771,-478600,-527870,-527463,-575732,2,2,2,2
2025-09-03 13:14:56.771,-486868,-527880,-527437,-559359,2,2,2,2
2025-09-03 13:14:56.772,-486811,-527883,-527408,-559106,2,2,2,2
2025-09-03 13:14:56.772,-486881,-527887,-527480,-575495,2,2,2,2
2025-09-03 13:14:56.772,-470495,-527882,-527481,-559110,2,2,2,2
2025-09-03 13:14:56.773,-486886,-527885,-527488,-559117,2,2,2,2
2025-09-03 13:14:56.775,-470516,-527893,-527501,-559128,2,2,2,2
2025-09-03 13:14:56.775,-486912,-527970,-527580,-559206,2,2,2,2
2025-09-03 13:14:56.775,-486909,-527906,-527510,-575557,2,2,2,2
2025-09-03 13:14:56.775,-486914,-527980,-527551,-559209,2,2,2,2
2025-09-03 13:14:56.775,-486923,-527992,-527596,-559222,2,2,2,2
2025-09-03 13:14:56.776,-470540,-527991,-527595,-559159,2,2,2,2
2025-09-03 13:14:56.776,-470518,-527971,-527508,-559135,2,2,2,2
2025-09-03 13:14:56.777,-470409,-527854,-527462,-559335,2,2,2,2
2025-09-03 13:14:56.777,-486711,-527773,-527380,-559251,2,2,2,2
2025-09-03 13:14:56.777,-486766,-527828,-527375,-575630,2,2,2,2
2025-09-03 13:14:56.777,-470385,-527774,-527381,-559251,2,2,2,2
2025-09-03 13:14:56.777,-478574,-527841,-527382,-559324,2,2,2,2
2025-09-03 13:14:56.777,-470302,-527760,-527366,-559307,2,2,2,2
2025-09-03 13:14:56.777,-486675,-527751,-527614,-559235,2,2,2,2
2025-09-03 13:14:56.777,-486675,-527814,-527615,-575620,2,2,2,2
2025-09-03 13:14:56.778,-486689,-527767,-527377,-559250,2,2,2,2
2025-09-03 13:14:56.778,-486759,-527810,-527387,-559259,2,2,2,2
2025-09-03 13:14:56.778,-486757,-527809,-527385,-559255,2,2,2,2
2025-09-03 13:14:56.778,-470347,-527845,-527387,-559321,2,2,2,2
2025-09-03 13:14:56.779,-486763,-527843,-527388,-559256,2,2,2,2
2025-09-03 13:14:56.779,-478561,-527830,-527381,-559311,2,2,2,2
2025-09-03 13:14:56.779,-478483,-527812,-527361,-559163,2,2,2,2
2025-09-03 13:14:56.779,-486676,-527749,-527609,-559233,2,2,2,2
2025-09-03 13:14:56.780,-486757,-527827,-527369,-575636,2,2,2,2
2025-09-03 13:14:56.780,-486857,-527863,-527471,-559355,2,2,2,2
2025-09-03 13:14:56.780,-486881,-527888,-527493,-559123,2,2,2,2
2025-09-03 13:14:56.781,-470507,-527901,-527508,-559136,2,2,2,2
2025-09-03 13:14:56.781,-486887,-527890,-527566,-559131,2,2,2,2
2025-09-03 13:14:56.781,-486815,-527883,-527560,-559122,2,2,2,2
2025-09-03 13:14:56.781,-470492,-527881,-527494,-559117,2,2,2,2
2025-09-03 13:14:56.782,-486891,-527890,-527566,-559124,2,2,2,2
2025-09-03 13:14:56.782,-470520,-527899,-527516,-559133,2,2,2,2
2025-09-03 13:14:56.782,-486906,-527904,-527582,-559202,2,2,2,2
2025-09-03 13:14:56.783,-486899,-527895,-527510,-575547,2,2,2,2
2025-09-03 13:14:56.783,-470509,-527889,-527506,-559127,2,2,2,2
2025-09-03 13:14:56.783,-486899,-527894,-527580,-559132,2,2,2,2
2025-09-03 13:14:56.783,-486894,-527888,-527515,-575516,2,2,2,2
2025-09-03 13:14:56.783,-470464,-527875,-527500,-559116,2,2,2,2
2025-09-03 13:14:56.784,-486887,-527881,-527509,-575539,2,2,2,2
2025-09-03 13:14:56.784,-470536,-527979,-527607,-559152,2,2,2,2
2025-09-03 13:14:56.785,-486939,-527998,-527622,-559235,2,2,2,2
2025-09-03 13:14:56.785,-470594,-528007,-527625,-559241,2,2,2,2
2025-09-03 13:14:56.785,-487027,-528091,-527639,-575673,2,2,2,2
2025-09-03 13:14:56.785,-487117,-528120,-527731,-559351,2,2,2,2
2025-09-03 13:14:56.786,-487062,-527876,-527741,-559362,2,2,2,2
2025-09-03 13:14:56.786,-487071,-527881,-527749,-575753,2,2,2,2
2025-09-03 13:14:56.786,-470730,-527890,-527760,-559383,2,2,2,2
2025-09-03 13:14:56.786,-487145,-527883,-527818,-559378,2,2,2,2
2025-09-03 13:14:56.787,-478873,-528123,-527734,-575743,2,2,2,2
2025-09-03 13:14:56.787,-487057,-528116,-527727,-559347,2,2,2,2
2025-09-03 13:14:56.787,-487057,-528117,-527726,-559346,2,2,2,2
2025-09-03 13:14:56.787,-470711,-528119,-527731,-559352,2,2,2,2
2025-09-03 13:14:56.788,-487142,-527878,-527809,-559367,2,2,2,2
2025-09-03 13:14:56.788,-470756,-527881,-527745,-559369,2,2,2,2
2025-09-03 13:14:56.788,-487133,-527876,-527674,-559365,2,2,2,2
2025-09-03 13:14:56.789,-487067,-527875,-527736,-575750,2,2,2,2
2025-09-03 13:14:56.789,-487117,-528120,-527690,-559352,2,2,2,2
2025-09-03 13:14:56.789,-487117,-528118,-527725,-559351,2,2,2,2
2025-09-03 13:14:56.789,-487060,-528121,-527728,-559354,2,2,2,2
2025-09-03 13:14:56.790,-470675,-528118,-527726,-559349,2,2,2,2
2025-09-03 13:14:56.790,-487046,-528103,-527645,-559334,2,2,2,2
2025-09-03 13:14:56.790,-487016,-528011,-527617,-559242,2,2,2,2
2025-09-03 13:14:56.790,-478741,-527928,-527598,-575610,2,2,2,2
2025-09-03 13:14:56.791,-486939,-527999,-527604,-559232,2,2,2,2
2025-09-03 13:14:56.791,-487010,-528073,-527612,-575627,2,2,2,2
2025-09-03 13:14:56.791,-487028,-528090,-527634,-575645,2,2,2,2
2025-09-03 13:14:56.791,-470649,-528031,-527641,-559332,2,2,2,2
2025-09-03 13:14:56.792,-486967,-528097,-527640,-559335,2,2,2,2
2025-09-03 13:14:56.792,-470639,-528030,-527639,-559333,2,2,2,2
2025-09-03 13:14:56.792,-487017,-528021,-527630,-559259,2,2,2,2
2025-09-03 13:14:56.793,-487019,-528084,-527631,-575676,2,2,2,2
2025-09-03 13:14:56.793,-486965,-528026,-527671,-559331,2,2,2,2
2025-09-03 13:14:56.793,-486964,-528025,-527668,-559263,2,2,2,2
2025-09-03 13:14:56.793,-487026,-528057,-527632,-559263,2,2,2,2
2025-09-03 13:14:56.794,-470648,-528098,-527639,-559331,2,2,2,2
2025-09-03 13:14:56.794,-487021,-528085,-527628,-575666,2,2,2,2
2025-09-03 13:14:56.794,-487015,-528077,-527622,-575622,2,2,2,2
2025-09-03 13:14:56.794,-486953,-528017,-527625,-559240,2,2,2,2
2025-09-03 13:14:56.795,-486943,-528009,-527612,-559228,2,2,2,2
2025-09-03 13:14:56.795,-470534,-527989,-527587,-559142,2,2,2,2
2025-09-03 13:14:56.795,-470477,-527898,-527494,-559114,2,2,2,2
2025-09-03 13:14:56.796,-478602,-527855,-527391,-575720,2,2,2,2
2025-09-03 13:14:56.796,-470416,-527860,-527460,-559340,2,2,2,2
2025-09-03 13:14:56.796,-486813,-527874,-527412,-559355,2,2,2,2
2025-09-03 13:14:56.796,-486884,-527881,-527486,-575743,2,2,2,2
2025-09-03 13:14:56.797,-470501,-527880,-527485,-559356,2,2,2,2
2025-09-03 13:14:56.797,-486881,-527875,-527481,-559352,2,2,2,2
2025-09-03 13:14:56.797,-470427,-527871,-527475,-559343,2,2,2,2
2025-09-03 13:14:56.798,-486807,-527873,-527411,-559342,2,2,2,2
2025-09-03 13:14:56.798,-478623,-527879,-527483,-575733,2,2,2,2
2025-09-03 13:14:56.798,-486891,-527892,-527557,-559107,2,2,2,2
2025-09-03 13:14:56.799,-486902,-527932,-527506,-575505,2,2,2,2
2025-09-03 13:14:56.799,-486912,-527970,-527512,-559131,2,2,2,2
2025-09-03 13:14:56.799,-470529,-527973,-527511,-559133,2,2,2,2
2025-09-03 13:14:56.800,-470628,-528004,-527610,-559299,2,2,2,2
2025-09-03 13:14:56.800,-487031,-528023,-527630,-559254,2,2,2,2
2025-09-03 13:14:56.800,-487035,-528028,-527638,-559259,2,2,2,2
2025-09-03 13:14:56.800,-487044,-528098,-527642,-575682,2,2,2,2
2025-09-03 13:14:56.801,-487116,-528109,-527681,-559334,2,2,2,2
2025-09-03 13:14:56.801,-487065,-528121,-527726,-575729,2,2,2,2
2025-09-03 13:14:56.801,-487137,-528125,-527730,-575734,2,2,2,2
2025-09-03 13:14:56.801,-487141,-528126,-527668,-559351,2,2,2,2
2025-09-03 13:14:56.801,-487061,-528108,-527648,-575685,2,2,2,2
2025-09-03 13:14:56.802,-487071,-528113,-527714,-559340,2,2,2,2
2025-09-03 13:14:56.802,-487153,-528125,-527730,-559358,2,2,2,2
2025-09-03 13:14:56.802,-487152,-527873,-527736,-559359,2,2,2,2
2025-09-03 13:14:56.803,-470712,-528111,-527717,-559342,2,2,2,2
2025-09-03 13:14:56.803,-486976,-528024,-527632,-559253,2,2,2,2
2025-09-03 13:14:56.803,-470634,-528069,-527607,-559167,2,2,2,2
2025-09-03 13:14:56.804,-486931,-527984,-527583,-559212,2,2,2,2
2025-09-03 13:14:56.804,-486901,-527896,-527555,-559125,2,2,2,2
2025-09-03 13:14:56.804,-486887,-527885,-527478,-575495,2,2,2,2
2025-09-03 13:14:56.804,-486887,-527888,-527480,-559111,2,2,2,2
2025-09-03 13:14:56.805,-486811,-527873,-527465,-559353,2,2,2,2
2025-09-03 13:14:56.805,-486864,-527860,-527390,-559344,2,2,2,2
2025-09-03 13:14:56.805,-470416,-527864,-527391,-559349,2,2,2,2
2025-09-03 13:14:56.805,-486810,-527873,-527396,-559357,2,2,2,2
2025-09-03 13:14:56.806,-478697,-527887,-527469,-575493,2,2,2,2
2025-09-03 13:14:56.806,-470514,-527893,-527474,-559114,2,2,2,2
2025-09-03 13:14:56.806,-486907,-527934,-527479,-559125,2,2,2,2
2025-09-03 13:14:56.806,-470524,-527969,-527483,-559126,2,2,2,2
2025-09-03 13:14:56.807,-486912,-527901,-527419,-559123,2,2,2,2
2025-09-03 13:14:56.807,-478735,-527912,-527505,-559141,2,2,2,2
2025-09-03 13:14:56.807,-486937,-527988,-527582,-559221,2,2,2,2
2025-09-03 13:14:56.808,-487012,-527936,-527592,-575615,2,2,2,2
2025-09-03 13:14:56.808,-470603,-528003,-527595,-559234,2,2,2,2
2025-09-03 13:14:56.808,-486950,-527996,-527592,-559230,2,2,2,2
2025-09-03 13:14:56.809,-470641,-528010,-527608,-559308,2,2,2,2
2025-09-03 13:14:56.809,-486939,-527986,-527588,-559223,2,2,2,2
2025-09-03 13:14:56.809,-486934,-527918,-527520,-575605,2,2,2,2
2025-09-03 13:14:56.809,-487010,-527929,-527594,-575616,2,2,2,2
2025-09-03 13:14:56.810,-486956,-528001,-527601,-559239,2,2,2,2
2025-09-03 13:14:56.810,-487013,-527929,-527595,-575614,2,2,2,2
2025-09-03 13:14:56.810,-470548,-527972,-527511,-559146,2,2,2,2
2025-09-03 13:14:56.810,-486924,-527896,-527563,-559134,2,2,2,2
2025-09-03 13:14:56.811,-486931,-527904,-527504,-575557,2,2,2,2
2025-09-03 13:14:56.811,-470549,-527977,-527510,-559147,2,2,2,2
2025-09-03 13:14:56.811,-486940,-527952,-527516,-559218,2,2,2,2
2025-09-03 13:14:56.811,-487016,-527997,-527592,-575615,2,2,2,2
2025-09-03 13:14:56.812,-470606,-528006,-527601,-559303,2,2,2,2
2025-09-03 13:14:56.812,-478739,-527914,-527510,-575538,2,2,2,2
2025-09-03 13:14:56.812,-470535,-527901,-527498,-559141,2,2,2,2
2025-09-03 13:14:56.813,-486898,-527879,-527414,-559120,2,2,2,2
2025-09-03 13:14:56.813,-470508,-527876,-527473,-559117,2,2,2,2
2025-09-03 13:14:56.813,-486906,-527890,-527490,-575546,2,2,2,2
2025-09-03 13:14:56.813,-486910,-527897,-527499,-559134,2,2,2,2
2025-09-03 13:14:56.814,-486906,-527897,-527497,-559129,2,2,2,2
2025-09-03 13:14:56.814,-470478,-527884,-527481,-559116,2,2,2,2
2025-09-03 13:14:56.814,-486893,-527880,-527412,-559110,2,2,2,2
2025-09-03 13:14:56.814,-486893,-527879,-527475,-575491,2,2,2,2
2025-09-03 13:14:56.815,-486902,-527890,-527486,-559117,2,2,2,2
2025-09-03 13:14:56.815,-486906,-527895,-527557,-559122,2,2,2,2
2025-09-03 13:14:56.815,-486909,-527932,-527499,-575506,2,2,2,2
2025-09-03 13:14:56.815,-470522,-527898,-527501,-559119,2,2,2,2
2025-09-03 13:14:56.816,-486904,-527897,-527566,-559118,2,2,2,2
2025-09-03 13:14:56.816,-486916,-527971,-527542,-559131,2,2,2,2
2025-09-03 13:14:56.816,-470549,-527920,-527517,-559147,2,2,2,2
2025-09-03 13:14:56.816,-486944,-527995,-527589,-559224,2,2,2,2
2025-09-03 13:14:56.817,-486931,-527923,-527512,-575595,2,2,2,2
2025-09-03 13:14:56.817,-486923,-527919,-527506,-575555,2,2,2,2
2025-09-03 13:14:56.817,-486922,-527980,-527504,-559134,2,2,2,2
2025-09-03 13:14:56.817,-486932,-527991,-527516,-559209,2,2,2,2
2025-09-03 13:14:56.818,-470627,-528005,-527593,-559158,2,2,2,2
2025-09-03 13:14:56.818,-470586,-527997,-527588,-559152,2,2,2,2
2025-09-03 13:14:56.818,-486935,-527927,-527588,-575567,2,2,2,2
2025-09-03 13:14:56.818,-486947,-528007,-527600,-559228,2,2,2,2
2025-09-03 13:14:56.819,-486931,-527990,-527519,-559216,2,2,2,2
2025-09-03 13:14:56.819,-470531,-527971,-527502,-559136,2,2,2,2
2025-09-03 13:14:56.819,-486907,-527897,-527556,-559130,2,2,2,2
2025-09-03 13:14:56.820,-486888,-527883,-527476,-575495,2,2,2,2
2025-09-03 13:14:56.820,-478612,-527859,-527391,-559342,2,2,2,2
2025-09-03 13:14:56.820,-486855,-527846,-527376,-559262,2,2,2,2
2025-09-03 13:14:56.820,-486785,-527838,-527367,-575636,2,2,2,2
2025-09-03 13:14:56.821,-470401,-527773,-527363,-559244,2,2,2,2
2025-09-03 13:14:56.821,-486771,-527756,-527606,-559231,2,2,2,2
2025-09-03 13:14:56.821,-486685,-527732,-527586,-559208,2,2,2,2
2025-09-03 13:14:56.821,-470285,-527718,-527509,-559133,2,2,2,2
2025-09-03 13:14:56.822,-486911,-527637,-527562,-559122,2,2,2,2
2025-09-03 13:14:56.822,-486897,-527626,-527485,-575498,2,2,2,2
2025-09-03 13:14:56.822,-486889,-527621,-527474,-575490,2,2,2,2
2025-09-03 13:14:56.822,-486881,-527871,-527430,-559092,2,2,2,2
2025-09-03 13:14:56.823,-486882,-527871,-527461,-559091,2,2,2,2
2025-09-03 13:14:56.823,-470464,-527868,-527462,-559087,2,2,2,2
2025-09-03 13:14:56.823,-470463,-527617,-527466,-559090,2,2,2,2
2025-09-03 13:14:56.824,-478698,-527625,-527477,-575484,2,2,2,2
2025-09-03 13:14:56.824,-486896,-527632,-527483,-575494,2,2,2,2
2025-09-03 13:14:56.824,-486896,-527665,-527487,-575494,2,2,2,2
2025-09-03 13:14:56.824,-470515,-527634,-527488,-559114,2,2,2,2
2025-09-03 13:14:56.825,-486904,-527641,-527559,-559122,2,2,2,2
2025-09-03 13:14:56.825,-486662,-527715,-527507,-559134,2,2,2,2
2025-09-03 13:14:56.825,-470284,-527719,-527511,-559138,2,2,2,2
2025-09-03 13:14:56.825,-486669,-527716,-527575,-559202,2,2,2,2
2025-09-03 13:14:56.826,-486668,-527655,-527515,-575591,2,2,2,2
2025-09-03 13:14:56.826,-486671,-527722,-527517,-559210,2,2,2,2
2025-09-03 13:14:56.826,-486684,-527733,-527561,-559218,2,2,2,2
2025-09-03 13:14:56.826,-486754,-527736,-527595,-559220,2,2,2,2
2025-09-03 13:14:56.827,-470375,-527739,-527599,-559160,2,2,2,2
2025-09-03 13:14:56.827,-486771,-527817,-527610,-575620,2,2,2,2
2025-09-03 13:14:56.827,-486788,-527771,-527372,-559254,2,2,2,2
2025-09-03 13:14:56.827,-478601,-527841,-527381,-575709,2,2,2,2
2025-09-03 13:14:56.828,-486711,-527764,-527366,-559244,2,2,2,2
2025-09-03 13:14:56.828,-486705,-527755,-527611,-559235,2,2,2,2
2025-09-03 13:14:56.828,-470342,-527748,-527601,-559159,2,2,2,2
2025-09-03 13:14:56.828,-486764,-527753,-527606,-559227,2,2,2,2
2025-09-03 13:14:56.829,-478587,-527827,-527364,-575631,2,2,2,2
2025-09-03 13:14:56.829,-470422,-527852,-527387,-559338,2,2,2,2
2025-09-03 13:14:56.829,-486900,-527885,-527418,-559112,2,2,2,2
2025-09-03 13:14:56.829,-486919,-527905,-527501,-575519,2,2,2,2
2025-09-03 13:14:56.830,-470577,-527976,-527509,-559209,2,2,2,2
2025-09-03 13:14:56.830,-486930,-527979,-527544,-559211,2,2,2,2
2025-09-03 13:14:56.830,-486928,-527979,-527515,-559212,2,2,2,2
2025-09-03 13:14:56.830,-470554,-527987,-527587,-559157,2,2,2,2
2025-09-03 13:14:56.831,-486942,-527992,-527593,-559225,2,2,2,2
2025-09-03 13:14:56.831,-478829,-528074,-527601,-575693,2,2,2,2
2025-09-03 13:14:56.831,-478837,-528089,-527613,-575700,2,2,2,2
2025-09-03 13:14:56.831,-486973,-528098,-527625,-559257,2,2,2,2
2025-09-03 13:14:56.832,-487043,-528072,-527632,-559260,2,2,2,2
2025-09-03 13:14:56.832,-470729,-528107,-527639,-559262,2,2,2,2
2025-09-03 13:14:56.832,-470707,-528117,-527714,-559334,2,2,2,2
2025-09-03 13:14:56.833,-487121,-528111,-527680,-559337,2,2,2,2
2025-09-03 13:14:56.833,-487051,-528103,-527642,-559331,2,2,2,2
2025-09-03 13:14:56.833,-487035,-528085,-527619,-575630,2,2,2,2
2025-09-03 13:14:56.833,-470648,-528014,-527611,-559240,2,2,2,2
2025-09-03 13:14:56.834,-470643,-528006,-527611,-559302,2,2,2,2
2025-09-03 13:14:56.834,-470647,-528011,-527614,-559306,2,2,2,2
2025-09-03 13:14:56.834,-487014,-527998,-527598,-559222,2,2,2,2
2025-09-03 13:14:56.834,-486938,-527928,-527592,-575597,2,2,2,2
2025-09-03 13:14:56.835,-486931,-527992,-527556,-559213,2,2,2,2
2025-09-03 13:14:56.835,-486937,-528001,-527590,-559218,2,2,2,2
2025-09-03 13:14:56.836,-470625,-528010,-527593,-559158,2,2,2,2
2025-09-03 13:14:56.836,-487016,-528016,-527601,-559231,2,2,2,2
2025-09-03 13:14:56.836,-487024,-528086,-527608,-575621,2,2,2,2
2025-09-03 13:14:56.836,-486963,-528020,-527613,-559240,2,2,2,2
2025-09-03 13:14:56.837,-487024,-528011,-527607,-559234,2,2,2,2
2025-09-03 13:14:56.837,-487023,-528073,-527607,-575618,2,2,2,2
2025-09-03 13:14:56.837,-470602,-528004,-527603,-559164,2,2,2,2
2025-09-03 13:14:56.837,-487029,-528017,-527609,-559234,2,2,2,2
2025-09-03 13:14:56.838,-478820,-528067,-527589,-575537,2,2,2,2
2025-09-03 13:14:56.838,-486931,-527986,-527509,-559204,2,2,2,2
2025-09-03 13:14:56.838,-486921,-527971,-527563,-559129,2,2,2,2
2025-09-03 13:14:56.838,-486929,-527913,-527509,-575519,2,2,2,2
2025-09-03 13:14:56.839,-470549,-527979,-527514,-559136,2,2,2,2
2025-09-03 13:14:56.839,-478735,-527910,-527503,-575512,2,2,2,2
2025-09-03 13:14:56.839,-486928,-527976,-527506,-559131,2,2,2,2
2025-09-03 13:14:56.839,-470559,-527992,-527586,-559147,2,2,2,2
2025-09-03 13:14:56.840,-487016,-528069,-527598,-575606,2,2,2,2
2025-09-03 13:14:56.840,-487021,-528012,-527602,-559232,2,2,2,2
2025-09-03 13:14:56.840,-486966,-528021,-527613,-559242,2,2,2,2
2025-09-03 13:14:56.840,-487034,-528026,-527622,-559250,2,2,2,2
2025-09-03 13:14:56.841,-470657,-528032,-527629,-559324,2,2,2,2
2025-09-03 13:14:56.841,-470658,-528103,-527629,-559328,2,2,2,2
2025-09-03 13:14:56.841,-487043,-528106,-527631,-575684,2,2,2,2
2025-09-03 13:14:56.841,-478851,-528108,-527635,-575687,2,2,2,2
2025-09-03 13:14:56.842,-486969,-528103,-527665,-559264,2,2,2,2
2025-09-03 13:14:56.842,-486970,-528104,-527635,-559263,2,2,2,2
2025-09-03 13:14:56.842,-487032,-528104,-527636,-575644,2,2,2,2
2025-09-03 13:14:56.842,-470650,-528105,-527635,-559261,2,2,2,2
2025-09-03 13:14:56.843,-470660,-528111,-527647,-559329,2,2,2,2
2025-09-03 13:14:56.843,-487116,-528117,-527657,-559336,2,2,2,2
2025-09-03 13:14:56.843,-487069,-527877,-527734,-575735,2,2,2,2
2025-09-03 13:14:56.844,-470719,-527882,-527738,-559352,2,2,2,2
2025-09-03 13:14:56.844,-487129,-527875,-527732,-559347,2,2,2,2
2025-09-03 13:14:56.844,-470676,-528128,-527731,-559347,2,2,2,2
2025-09-03 13:14:56.845,-487040,-528109,-527648,-559329,2,2,2,2
2025-09-03 13:14:56.845,-478845,-528105,-527642,-575679,2,2,2,2
2025-09-03 13:14:56.845,-487039,-528106,-527646,-575682,2,2,2,2
2025-09-03 13:14:56.845,-486952,-528020,-527622,-559245,2,2,2,2
2025-09-03 13:14:56.846,-486933,-528001,-527599,-559223,2,2,2,2
2025-09-03 13:14:56.846,-470577,-527997,-527590,-559214,2,2,2,2
2025-09-03 13:14:56.846,-470541,-527990,-527585,-559208,2,2,2,2
2025-09-03 13:14:56.847,-478707,-527898,-527490,-575502,2,2,2,2
2025-09-03 13:14:56.847,-470498,-527885,-527476,-559106,2,2,2,2
2025-09-03 13:14:56.847,-486816,-527883,-527472,-575741,2,2,2,2
2025-09-03 13:14:56.847,-470471,-527890,-527485,-559112,2,2,2,2
2025-09-03 13:14:56.848,-486886,-527888,-527420,-559108,2,2,2,2
2025-09-03 13:14:56.848,-486881,-527880,-527477,-559356,2,2,2,2
2025-09-03 13:14:56.848,-470428,-527876,-527473,-559348,2,2,2,2
2025-09-03 13:14:56.848,-486873,-527874,-527409,-559343,2,2,2,2
2025-09-03 13:14:56.849,-486813,-527875,-527473,-575728,2,2,2,2
2025-09-03 13:14:56.849,-478616,-527872,-527469,-575695,2,2,2,2
2025-09-03 13:14:56.849,-486871,-527875,-527473,-559344,2,2,2,2
2025-09-03 13:14:56.850,-486885,-527892,-527490,-559360,2,2,2,2
2025-09-03 13:14:56.850,-470520,-527976,-527511,-559126,2,2,2,2
2025-09-03 13:14:56.850,-486921,-527928,-527588,-575589,2,2,2,2
2025-09-03 13:14:56.850,-486917,-527986,-527583,-559135,2,2,2,2
2025-09-03 13:14:56.850,-478725,-527920,-527586,-575520,2,2,2,2
2025-09-03 13:14:56.851,-486904,-527970,-527543,-559125,2,2,2,2
2025-09-03 13:14:56.851,-470429,-527878,-527482,-559352,2,2,2,2
2025-09-03 13:14:56.851,-470452,-527868,-527473,-559342,2,2,2,2
2025-09-03 13:14:56.851,-470476,-527860,-527463,-559332,2,2,2,2
2025-09-03 13:14:56.852,-486777,-527849,-527384,-559256,2,2,2,2
2025-09-03 13:14:56.852,-486710,-527844,-527380,-559256,2,2,2,2
2025-09-03 13:14:56.852,-486768,-527832,-527369,-575633,2,2,2,2
2025-09-03 13:14:56.853,-486762,-527825,-527364,-575625,2,2,2,2
2025-09-03 13:14:56.853,-486705,-527767,-527373,-559251,2,2,2,2
2025-09-03 13:14:56.853,-486775,-527772,-527379,-559255,2,2,2,2
2025-09-03 13:14:56.853,-470403,-527847,-527387,-559323,2,2,2,2
2025-09-03 13:14:56.854,-486805,-527870,-527403,-559340,2,2,2,2
2025-09-03 13:14:56.854,-478699,-527894,-527490,-575494,2,2,2,2
2025-09-03 13:14:56.854,-478723,-527915,-527512,-575549,2,2,2,2
2025-09-03 13:14:56.854,-486942,-528004,-527606,-559225,2,2,2,2
2025-09-03 13:14:56.855,-487019,-528050,-527616,-559240,2,2,2,2
2025-09-03 13:14:56.855,-470576,-528023,-527620,-559245,2,2,2,2
2025-09-03 13:14:56.855,-487026,-528026,-527626,-559250,2,2,2,2
2025-09-03 13:14:56.855,-487030,-528095,-527631,-575667,2,2,2,2
2025-09-03 13:14:56.856,-478839,-528100,-527634,-559314,2,2,2,2
2025-09-03 13:14:56.856,-487038,-528113,-527642,-559261,2,2,2,2
