Timestamp,Ch1,Ch2,Ch3,Ch4,Ch5,Ch6,Ch7,Ch8
2025-09-03 12:56:38.019,2720102,1050648,1007623,2,2,2,2,2
2025-09-03 12:56:38.047,6930952,1050488,999173,2,2,2,2,2
2025-09-03 12:56:38.075,2737014,1050738,1007868,2,2,2,2,2
2025-09-03 12:56:38.102,2737265,1050882,1007730,2,2,2,2,2
2025-09-03 12:56:38.130,6915636,3148130,991703,2,2,2,2,2
2025-09-03 12:56:38.157,6932080,1050872,999520,2,2,2,2,2
2025-09-03 12:56:38.184,6915995,1051068,1007864,2,2,2,2,2
2025-09-03 12:56:38.212,4818924,1050925,1007744,2,2,2,2,2
2025-09-03 12:56:38.239,6932934,1051107,991716,2,2,2,2,2
2025-09-03 12:56:38.266,6916742,1051239,1008157,2,2,2,2,2
2025-09-03 12:56:38.294,6933631,1051633,1000067,2,2,2,2,2
2025-09-03 12:56:38.322,2723060,1051624,1008233,2,2,2,2,2
2025-09-03 12:56:38.350,6917838,1051633,992118,2,2,2,2,2
2025-09-03 12:56:38.379,2723614,1051645,1008505,2,2,2,2,2
2025-09-03 12:56:38.405,2723942,1051711,1008619,2,2,2,2,2
2025-09-03 12:56:38.433,6934912,1051669,992119,2,2,2,2,2
2025-09-03 12:56:38.459,6918893,1051926,992322,2,2,2,2,2
2025-09-03 12:56:38.486,4821885,1051940,1008772,2,2,2,2,2
2025-09-03 12:56:38.512,2725095,1051927,1008666,2,2,2,2,2
2025-09-03 12:56:38.540,6936050,1052130,1000605,2,2,2,2,2
2025-09-03 12:56:38.566,2733578,1052355,1008927,2,2,2,2,2
2025-09-03 12:56:38.594,4823010,1052353,1009007,2,2,2,2,2
2025-09-03 12:56:38.621,6920231,1052315,992625,2,2,2,2,2
2025-09-03 12:56:38.647,6920934,1052648,1009257,2,2,2,2,2
2025-09-03 12:56:38.674,2726518,1052669,1009274,2,2,2,2,2
2025-09-03 12:56:38.701,6937649,1052773,1001099,2,2,2,2,2
2025-09-03 12:56:38.730,2735624,1053158,1009647,2,2,2,2,2
2025-09-03 12:56:38.757,6938131,1053028,993055,2,2,2,2,2
2025-09-03 12:56:38.784,6938406,1052941,993282,2,2,2,2,2
2025-09-03 12:56:38.812,6938800,1053160,993419,2,2,2,2,2
2025-09-03 12:56:38.839,6939163,1053441,993689,2,2,2,2,2
2025-09-03 12:56:38.865,6939431,1053582,993604,2,2,2,2,2
2025-09-03 12:56:38.893,6939643,1053422,993582,2,2,2,2,2
2025-09-03 12:56:38.920,6940220,1053702,993914,2,2,2,2,2
2025-09-03 12:56:38.946,2746111,1053692,1010288,2,2,2,2,2
2025-09-03 12:56:38.973,6940702,1054181,994078,2,2,2,2,2
2025-09-03 12:56:39.001,2746770,1054191,1010712,2,2,2,2,2
2025-09-03 12:56:39.028,6941240,1054059,994151,2,2,2,2,2
2025-09-03 12:56:39.055,6941678,1054308,1002507,2,2,2,2,2
2025-09-03 12:56:39.082,6941726,1054238,1010688,2,2,2,2,2
2025-09-03 12:56:39.109,2747886,1054563,1010946,2,2,2,2,2
2025-09-03 12:56:39.137,6942476,1054467,1011161,2,2,2,2,2
2025-09-03 12:56:39.163,6942863,1054818,1003153,2,2,2,2,2
2025-09-03 12:56:39.192,6943124,1063152,1011213,2,2,2,2,2
2025-09-03 12:56:39.220,6943495,1055133,995015,2,2,2,2,2
2025-09-03 12:56:39.247,6943796,1055087,995216,2,2,2,2,2
2025-09-03 12:56:39.275,6943903,1055092,1011312,2,2,2,2,2
2025-09-03 12:56:39.301,6944238,1055254,995084,2,2,2,2,2
2025-09-03 12:56:39.329,6944281,1055330,1011704,2,2,2,2,2
2025-09-03 12:56:39.356,2750692,1055590,1011952,2,2,2,2,2
2025-09-03 12:56:39.383,6945028,1055496,995486,2,2,2,2,2
2025-09-03 12:56:39.410,2751379,1055776,1012126,2,2,2,2,2
2025-09-03 12:56:39.438,6945986,1055901,995899,2,2,2,2,2
2025-09-03 12:56:39.465,6946252,1056104,995981,2,2,2,2,2
2025-09-03 12:56:39.492,6946571,1056284,1012627,2,2,2,2,2
2025-09-03 12:56:39.520,4849663,1056443,1012490,2,2,2,2,2
2025-09-03 12:56:39.547,4784530,1056446,1012761,2,2,2,2,2
2025-09-03 12:56:39.575,6882196,1073269,1013208,2,2,2,2,2
2025-09-03 12:56:39.602,2688260,1073447,1013392,2,2,2,2,2
2025-09-03 12:56:39.630,2688658,1073862,1013742,2,2,2,2,2
2025-09-03 12:56:39.657,6883376,3170964,997374,2,2,2,2,2
2025-09-03 12:56:39.684,4786446,1057563,1013893,2,2,2,2,2
2025-09-03 12:56:39.712,4787431,1058164,1014524,2,2,2,2,2
2025-09-03 12:56:39.739,4788121,1058807,1015159,2,2,2,2,2
2025-09-03 12:56:39.767,6885636,1075444,1015501,2,2,2,2,2
2025-09-03 12:56:39.793,2691226,1074989,1014931,2,2,2,2,2
2025-09-03 12:56:39.821,2690953,1074942,1014552,2,2,2,2,2
2025-09-03 12:56:39.849,4788708,1058812,1014806,2,2,2,2,2
2025-09-03 12:56:39.876,4788452,1058518,1014682,2,2,2,2,2
2025-09-03 12:56:39.902,2690846,1058027,1014254,2,2,2,2,2
2025-09-03 12:56:39.930,6885197,1074076,1013886,2,2,2,2,2
2025-09-03 12:56:39.958,6886017,1074557,1014388,2,2,2,2,2
2025-09-03 12:56:39.989,6886647,1075079,998531,2,2,2,2,2
2025-09-03 12:56:40.014,6887141,3172592,998912,2,2,2,2,2
2025-09-03 12:56:40.042,4790377,1059330,1015660,2,2,2,2,2
2025-09-03 12:56:40.068,6888062,1068006,1015824,2,2,2,2,2
2025-09-03 12:56:40.096,2694390,1076454,1016351,2,2,2,2,2
2025-09-03 12:56:40.124,6889092,1076748,1016711,2,2,2,2,2
2025-09-03 12:56:40.151,6905991,1060792,1016854,2,2,2,2,2
2025-09-03 12:56:40.178,6886853,1074052,997387,2,2,2,2,2
2025-09-03 12:56:40.206,4787736,1055807,1012090,2,2,2,2,2
2025-09-03 12:56:40.234,6884903,1055742,995350,2,2,2,2,2
2025-09-03 12:56:40.260,6882931,1061759,1009866,2,2,2,2,2
2025-09-03 12:56:40.287,4784135,1052101,1008098,2,2,2,2,2
2025-09-03 12:56:40.314,6881326,1051748,991544,2,2,2,2,2
2025-09-03 12:56:40.340,2687004,1051626,1007866,2,2,2,2,2
2025-09-03 12:56:40.368,6881508,1051364,991220,2,2,2,2,2
2025-09-03 12:56:40.395,6881668,1051422,999265,2,2,2,2,2
2025-09-03 12:56:40.422,6881776,1051235,990975,2,2,2,2,2
2025-09-03 12:56:40.449,6881772,1051287,990838,2,2,2,2,2
2025-09-03 12:56:40.477,6881929,1051121,990842,2,2,2,2,2
2025-09-03 12:56:40.504,4784738,1050897,990573,2,2,2,2,2
2025-09-03 12:56:40.531,6882282,1050894,990517,2,2,2,2,2
2025-09-03 12:56:40.559,2688111,1050894,990495,2,2,2,2,2
2025-09-03 12:56:40.585,6882317,1051001,990584,2,2,2,2,2
2025-09-03 12:56:40.612,6882612,3148150,990505,2,2,2,2,2
2025-09-03 12:56:40.638,6882603,1050868,990340,2,2,2,2,2
2025-09-03 12:56:40.666,2688795,1050907,990608,2,2,2,2,2
2025-09-03 12:56:40.693,6883305,1050980,990348,2,2,2,2,2
2025-09-03 12:56:40.720,6883460,1051022,998548,2,2,2,2,2
2025-09-03 12:56:40.747,6883344,3148001,990153,2,2,2,2,2
2025-09-03 12:56:40.775,4786571,1051071,990329,2,2,2,2,2
2025-09-03 12:56:40.801,4786717,1051131,990344,2,2,2,2,2
2025-09-03 12:56:40.829,6883984,1050860,990256,2,2,2,2,2
2025-09-03 12:56:40.855,2690161,1050909,990350,2,2,2,2,2
2025-09-03 12:56:40.882,2690183,1050873,990225,2,2,2,2,2
2025-09-03 12:56:40.910,2690409,1050899,990311,2,2,2,2,2
2025-09-03 12:56:40.937,6884627,1050770,998254,2,2,2,2,2
2025-09-03 12:56:40.964,2690700,1050822,990049,2,2,2,2,2
2025-09-03 12:56:40.992,2690706,1050630,989830,2,2,2,2,2
2025-09-03 12:56:41.019,6884867,1050607,989771,2,2,2,2,2
2025-09-03 12:56:41.047,6885102,1050397,989489,2,2,2,2,2
2025-09-03 12:56:41.075,6885101,1050102,989411,2,2,2,2,2
2025-09-03 12:56:41.103,2691058,1050235,989206,2,2,2,2,2
2025-09-03 12:56:41.130,2690718,1049839,988950,2,2,2,2,2
2025-09-03 12:56:41.157,6885106,1049730,988796,2,2,2,2,2
2025-09-03 12:56:41.186,6884968,1049198,988183,2,2,2,2,2
2025-09-03 12:56:41.213,4787734,1049077,988000,2,2,2,2,2
2025-09-03 12:56:41.240,2690660,1049027,987781,2,2,2,2,2
2025-09-03 12:56:41.266,2690555,1048573,987538,2,2,2,2,2
2025-09-03 12:56:41.292,2690183,1048073,987019,2,2,2,2,2
2025-09-03 12:56:41.320,4787329,1048007,986860,2,2,2,2,2
2025-09-03 12:56:41.346,2690201,1047609,986387,2,2,2,2,2
2025-09-03 12:56:41.373,4787183,1047285,985994,2,2,2,2,2
2025-09-03 12:56:41.399,6884199,1047048,985722,2,2,2,2,2
2025-09-03 12:56:41.426,2689539,1046572,985470,2,2,2,2,2
2025-09-03 12:56:41.453,6883900,1046543,985088,2,2,2,2,2
2025-09-03 12:56:41.480,6883838,1046156,984853,2,2,2,2,2
2025-09-03 12:56:41.508,6883613,1045876,984463,2,2,2,2,2
2025-09-03 12:56:41.535,4786410,1045375,983939,2,2,2,2,2
2025-09-03 12:56:41.562,2688905,1045222,983682,2,2,2,2,2
2025-09-03 12:56:41.589,6883131,1044757,983252,2,2,2,2,2
2025-09-03 12:56:41.616,2688620,1044440,983034,2,2,2,2,2
2025-09-03 12:56:41.642,6882940,1044338,982626,2,2,2,2,2
2025-09-03 12:56:41.671,2688155,1043465,981910,2,2,2,2,2
2025-09-03 12:56:41.699,4785267,1043269,981640,2,2,2,2,2
2025-09-03 12:56:41.725,6882415,1034991,981499,2,2,2,2,2
2025-09-03 12:56:41.754,6882333,1042714,981236,2,2,2,2,2
2025-09-03 12:56:41.780,6882034,1034106,980722,2,2,2,2,2
2025-09-03 12:56:41.807,4784742,1042044,980104,2,2,2,2,2
2025-09-03 12:56:41.834,6881551,1041652,979939,2,2,2,2,2
2025-09-03 12:56:41.861,6881536,1041279,979439,2,2,2,2,2
2025-09-03 12:56:41.888,6881300,1040918,979043,2,2,2,2,2
2025-09-03 12:56:41.914,6881308,1040790,978897,2,2,2,2,2
2025-09-03 12:56:41.942,6946540,1040334,978294,2,2,2,2,2
2025-09-03 12:56:41.969,2752235,1023630,977898,2,2,2,2,2
2025-09-03 12:56:41.997,6946110,1023130,977469,2,2,2,2,2
2025-09-03 12:56:42.024,6946065,1022721,976940,2,2,2,2,2
2025-09-03 12:56:42.051,2751596,1022610,976884,2,2,2,2,2
2025-09-03 12:56:42.080,2751346,1021983,976144,2,2,2,2,2
2025-09-03 12:56:42.108,6945676,1021939,975930,2,2,2,2,2
2025-09-03 12:56:42.135,2751215,1021412,975613,2,2,2,2,2
2025-09-03 12:56:42.162,6945529,1021281,975135,2,2,2,2,2
2025-09-03 12:56:42.190,6945249,1020814,974645,2,2,2,2,2
2025-09-03 12:56:42.217,6944903,1028600,958003,2,2,2,2,2
2025-09-03 12:56:42.245,6944831,1020004,973939,2,2,2,2,2
2025-09-03 12:56:42.272,6944542,1019526,973438,2,2,2,2,2
2025-09-03 12:56:42.300,6944441,1019267,964879,2,2,2,2,2
2025-09-03 12:56:42.326,4847082,1035294,956288,2,2,2,2,2
2025-09-03 12:56:42.355,6944223,1018516,956107,2,2,2,2,2
2025-09-03 12:56:42.382,2749457,1018329,955503,2,2,2,2,2
2025-09-03 12:56:42.409,6943982,1017857,955167,2,2,2,2,2
2025-09-03 12:56:42.435,2749444,1034229,955039,2,2,2,2,2
2025-09-03 12:56:42.464,6943741,1017450,971239,2,2,2,2,2
2025-09-03 12:56:42.490,2749201,1017089,954386,2,2,2,2,2
2025-09-03 12:56:42.517,6943256,1016720,954002,2,2,2,2,2
2025-09-03 12:56:42.545,2748924,1016565,953470,2,2,2,2,2
2025-09-03 12:56:42.572,6943226,1016214,969717,2,2,2,2,2
2025-09-03 12:56:42.598,6942863,999399,952820,2,2,2,2,2
2025-09-03 12:56:42.626,6942834,1015563,952552,2,2,2,2,2
2025-09-03 12:56:42.652,2748432,1015092,952066,2,2,2,2,2
2025-09-03 12:56:42.680,6942488,1014804,951580,2,2,2,2,2
2025-09-03 12:56:42.707,6942451,1014377,951312,2,2,2,2,2
2025-09-03 12:56:42.735,6942078,1014117,951026,2,2,2,2,2
2025-09-03 12:56:42.762,6941945,1013622,950495,2,2,2,2,2
2025-09-03 12:56:42.789,6941948,997091,950262,2,2,2,2,2
2025-09-03 12:56:42.817,6941686,1013022,949760,2,2,2,2,2
2025-09-03 12:56:42.843,6941329,1012622,949252,2,2,2,2,2
2025-09-03 12:56:42.871,2738567,1012213,948740,2,2,2,2,2
2025-09-03 12:56:42.899,6941173,995570,948456,2,2,2,2,2
2025-09-03 12:56:42.926,6941165,1011582,931845,2,2,2,2,2
2025-09-03 12:56:42.952,6940868,1011098,931335,2,2,2,2,2
2025-09-03 12:56:42.980,6940684,1010840,931043,2,2,2,2,2
2025-09-03 12:56:43.007,6940516,994174,947053,2,2,2,2,2
2025-09-03 12:56:43.035,4842991,993714,946447,2,2,2,2,2
2025-09-03 12:56:43.063,6940186,1009770,929933,2,2,2,2,2
2025-09-03 12:56:43.089,6939904,1009377,945816,2,2,2,2,2
2025-09-03 12:56:43.117,4842629,992761,945283,2,2,2,2,2
2025-09-03 12:56:43.144,6939656,992503,944924,2,2,2,2,2
2025-09-03 12:56:43.170,4842237,991793,944490,2,2,2,2,2
2025-09-03 12:56:43.198,6939390,1007875,927921,2,2,2,2,2
2025-09-03 12:56:43.227,6939122,1007722,927467,2,2,2,2,2
2025-09-03 12:56:43.254,6938870,998917,943381,2,2,2,2,2
2025-09-03 12:56:43.282,6938737,990711,943083,2,2,2,2,2
2025-09-03 12:56:43.309,2735987,990005,942594,2,2,2,2,2
2025-09-03 12:56:43.336,6922109,997906,942280,2,2,2,2,2
2025-09-03 12:56:43.363,6921829,989360,925327,2,2,2,2,2
2025-09-03 12:56:43.390,6921532,989034,924977,2,2,2,2,2
2025-09-03 12:56:43.416,6937877,988905,932893,2,2,2,2,2
2025-09-03 12:56:43.444,6921327,988552,924368,2,2,2,2,2
2025-09-03 12:56:43.471,2726764,987918,923894,2,2,2,2,2
2025-09-03 12:56:43.498,6920986,987782,923645,2,2,2,2,2
2025-09-03 12:56:43.525,6920930,987504,923276,2,2,2,2,2
2025-09-03 12:56:43.552,6936944,987032,922753,2,2,2,2,2
2025-09-03 12:56:43.579,6920508,986740,922373,2,2,2,2,2
2025-09-03 12:56:43.606,2726152,986576,922095,2,2,2,2,2
2025-09-03 12:56:43.633,2725864,986092,921583,2,2,2,2,2
2025-09-03 12:56:43.661,6919912,985462,921107,2,2,2,2,2
2025-09-03 12:56:43.689,6936092,985186,920731,2,2,2,2,2
2025-09-03 12:56:43.717,2733719,984865,920421,2,2,2,2,2
2025-09-03 12:56:43.745,2733453,984533,919923,2,2,2,2,2
2025-09-03 12:56:43.772,6919292,984087,919447,2,2,2,2,2
2025-09-03 12:56:43.799,2733060,983858,919171,2,2,2,2,2
2025-09-03 12:56:43.827,2732905,983587,919039,2,2,2,2,2
2025-09-03 12:56:43.854,6935167,983293,918399,2,2,2,2,2
2025-09-03 12:56:43.881,4821512,1048330,918128,2,2,2,2,2
2025-09-03 12:56:43.908,2732435,1047846,917606,2,2,2,2,2
2025-09-03 12:56:43.935,6918281,1047781,982894,2,2,2,2,2
2025-09-03 12:56:43.963,6918039,1047168,982505,2,2,2,2,2
2025-09-03 12:56:43.989,2723938,1047260,982240,2,2,2,2,2
2025-09-03 12:56:44.017,6917847,1046666,981624,2,2,2,2,2
2025-09-03 12:56:44.044,6917761,1046287,981450,2,2,2,2,2
2025-09-03 12:56:44.073,2723312,1046005,981019,2,2,2,2,2
2025-09-03 12:56:44.100,6933822,1045737,980717,2,2,2,2,2
2025-09-03 12:56:44.127,6933527,1045120,979968,2,2,2,2,2
2025-09-03 12:56:44.155,6933381,1044843,979840,2,2,2,2,2
2025-09-03 12:56:44.182,4819819,1044695,979424,2,2,2,2,2
2025-09-03 12:56:44.209,4819480,1044237,979173,2,2,2,2,2
2025-09-03 12:56:44.236,6916379,1043609,978437,2,2,2,2,2
2025-09-03 12:56:44.263,6932613,1043432,969878,2,2,2,2,2
2025-09-03 12:56:44.290,6916080,1043080,977773,2,2,2,2,2
2025-09-03 12:56:44.317,2721643,1042892,977399,2,2,2,2,2
2025-09-03 12:56:44.344,2721423,1042369,977037,2,2,2,2,2
2025-09-03 12:56:44.372,6915609,1042079,976761,2,2,2,2,2
2025-09-03 12:56:44.399,2721400,1041866,976373,2,2,2,2,2
2025-09-03 12:56:44.426,6915437,1033227,975882,2,2,2,2,2
2025-09-03 12:56:44.454,6915084,1041016,975369,2,2,2,2,2
2025-09-03 12:56:44.481,6915205,1040925,975259,2,2,2,2,2
2025-09-03 12:56:44.508,6915063,1032294,958263,2,2,2,2,2
2025-09-03 12:56:44.536,2720355,1023517,957965,2,2,2,2,2
2025-09-03 12:56:44.563,2720238,1023268,957688,2,2,2,2,2
2025-09-03 12:56:44.590,6914335,1031269,957376,2,2,2,2,2
2025-09-03 12:56:44.617,6914272,1022596,973178,2,2,2,2,2
2025-09-03 12:56:44.644,6914333,1022590,973073,2,2,2,2,2
2025-09-03 12:56:44.672,6913803,1021939,955925,2,2,2,2,2
2025-09-03 12:56:44.698,2719614,1021682,955901,2,2,2,2,2
2025-09-03 12:56:44.724,2719356,1021241,955415,2,2,2,2,2
2025-09-03 12:56:44.753,6913557,1029271,954909,2,2,2,2,2
2025-09-03 12:56:44.780,6896992,1020768,954758,2,2,2,2,2
2025-09-03 12:56:44.807,6913221,1020191,970569,2,2,2,2,2
2025-09-03 12:56:44.834,2702318,1019676,953831,2,2,2,2,2
2025-09-03 12:56:44.861,6912986,1019529,969974,2,2,2,2,2
2025-09-03 12:56:44.888,2718444,1019175,953217,2,2,2,2,2
2025-09-03 12:56:44.917,6896238,1018908,952597,2,2,2,2,2
2025-09-03 12:56:44.944,6912355,1034908,952432,2,2,2,2,2
2025-09-03 12:56:44.971,2717807,1018166,952053,2,2,2,2,2
2025-09-03 12:56:44.997,6895810,1017959,951676,2,2,2,2,2
2025-09-03 12:56:45.026,6911763,1017367,967674,2,2,2,2,2
2025-09-03 12:56:45.053,6895118,1017067,950631,2,2,2,2,2
2025-09-03 12:56:45.080,6911712,1033210,950291,2,2,2,2,2
2025-09-03 12:56:45.107,2700666,1016421,950030,2,2,2,2,2
2025-09-03 12:56:45.134,6911106,1016063,949700,2,2,2,2,2
2025-09-03 12:56:45.164,2716913,1016012,949496,2,2,2,2,2
2025-09-03 12:56:45.191,6894470,1015278,948713,2,2,2,2,2
2025-09-03 12:56:45.219,6910843,1015151,948475,2,2,2,2,2
2025-09-03 12:56:45.246,4813432,998341,947993,2,2,2,2,2
2025-09-03 12:56:45.274,6910436,1014246,947688,2,2,2,2,2
2025-09-03 12:56:45.302,6910227,1013991,931016,2,2,2,2,2
2025-09-03 12:56:45.329,6909971,997188,946926,2,2,2,2,2
2025-09-03 12:56:45.357,2715655,1013481,946443,2,2,2,2,2
2025-09-03 12:56:45.385,6909709,1012846,929601,2,2,2,2,2
2025-09-03 12:56:45.413,6893293,1012632,937574,2,2,2,2,2
2025-09-03 12:56:45.440,2715384,1012280,945566,2,2,2,2,2
2025-09-03 12:56:45.468,2706832,1011920,945048,2,2,2,2,2
2025-09-03 12:56:45.495,4811784,995283,944497,2,2,2,2,2
2025-09-03 12:56:45.522,6892560,1011225,936077,2,2,2,2,2
2025-09-03 12:56:45.550,2714355,1010746,943769,2,2,2,2,2
2025-09-03 12:56:45.578,6892283,1010449,943349,2,2,2,2,2
2025-09-03 12:56:45.605,6908384,993664,942857,2,2,2,2,2
2025-09-03 12:56:45.632,2697569,1009801,942587,2,2,2,2,2
2025-09-03 12:56:45.660,6891535,1009407,942083,2,2,2,2,2
2025-09-03 12:56:45.688,4810780,992723,925555,2,2,2,2,2
2025-09-03 12:56:45.716,6907744,1000458,925132,2,2,2,2,2
2025-09-03 12:56:45.744,6907596,1008397,924695,2,2,2,2,2
2025-09-03 12:56:45.772,6890911,1008101,932508,2,2,2,2,2
2025-09-03 12:56:45.800,6890817,991227,923779,2,2,2,2,2
2025-09-03 12:56:45.827,6890692,990971,931612,2,2,2,2,2
2025-09-03 12:56:45.854,6906899,990715,923123,2,2,2,2,2
2025-09-03 12:56:45.881,6906761,998410,922842,2,2,2,2,2
2025-09-03 12:56:45.907,6906759,990176,922620,2,2,2,2,2
2025-09-03 12:56:45.936,6890188,989569,921977,2,2,2,2,2
2025-09-03 12:56:45.963,2704012,989420,921724,2,2,2,2,2
2025-09-03 12:56:45.990,2711930,988957,921240,2,2,2,2,2
2025-09-03 12:56:46.017,6889523,988655,921083,2,2,2,2,2
2025-09-03 12:56:46.044,6889339,988292,920427,2,2,2,2,2
2025-09-03 12:56:46.072,6889320,996110,920122,2,2,2,2,2
2025-09-03 12:56:46.098,6888990,987542,919775,2,2,2,2,2
2025-09-03 12:56:46.125,6888848,987367,919511,2,2,2,2,2
2025-09-03 12:56:46.152,2694638,987075,919060,2,2,2,2,2
2025-09-03 12:56:46.180,6888961,986980,918926,2,2,2,2,2
2025-09-03 12:56:46.206,6888935,986505,918684,2,2,2,2,2
2025-09-03 12:56:46.233,2694035,985858,917995,2,2,2,2,2
2025-09-03 12:56:46.260,6888455,985862,917888,2,2,2,2,2
2025-09-03 12:56:46.288,2702180,985581,917506,2,2,2,2,2
2025-09-03 12:56:46.315,6888446,985363,917269,2,2,2,2,2
2025-09-03 12:56:46.342,6887994,984856,916987,2,2,2,2,2
2025-09-03 12:56:46.370,6888185,984603,916619,2,2,2,2,2
2025-09-03 12:56:46.397,2693750,984371,916369,2,2,2,2,2
2025-09-03 12:56:46.423,6887685,984195,915845,2,2,2,2,2
2025-09-03 12:56:46.450,6887685,983830,915462,2,2,2,2,2
2025-09-03 12:56:46.477,6887727,983561,915413,2,2,2,2,2
2025-09-03 12:56:46.504,6887471,983535,915197,2,2,2,2,2
2025-09-03 12:56:46.532,2693090,982995,914577,2,2,2,2,2
2025-09-03 12:56:46.559,6887211,982678,914284,2,2,2,2,2
2025-09-03 12:56:46.587,2700949,982481,913947,2,2,2,2,2
2025-09-03 12:56:46.615,6887058,982115,913550,2,2,2,2,2
2025-09-03 12:56:46.642,6886775,981645,913100,2,2,2,2,2
2025-09-03 12:56:46.670,6886507,981257,912868,2,2,2,2,2
2025-09-03 12:56:46.696,6886504,981143,912398,2,2,2,2,2
2025-09-03 12:56:46.724,2692112,980761,912232,2,2,2,2,2
2025-09-03 12:56:46.752,6886260,980492,911857,2,2,2,2,2
2025-09-03 12:56:46.779,6886269,980119,911390,2,2,2,2,2
2025-09-03 12:56:46.807,6886123,979860,911051,2,2,2,2,2
2025-09-03 12:56:46.834,6885655,979338,910546,2,2,2,2,2
2025-09-03 12:56:46.862,6885621,979185,902112,2,2,2,2,2
2025-09-03 12:56:46.889,6885495,978688,910037,2,2,2,2,2
2025-09-03 12:56:46.917,6885383,978449,901497,2,2,2,2,2
2025-09-03 12:56:46.944,6885095,977818,892636,2,2,2,2,2
2025-09-03 12:56:46.971,6884845,977434,892154,2,2,2,2,2
2025-09-03 12:56:46.998,6884847,977380,908362,2,2,2,2,2
2025-09-03 12:56:47.025,6884592,976757,907985,2,2,2,2,2
2025-09-03 12:56:47.052,2690075,976431,891249,2,2,2,2,2
2025-09-03 12:56:47.079,4786825,975917,890631,2,2,2,2,2
2025-09-03 12:56:47.106,6884040,975616,906691,2,2,2,2,2
2025-09-03 12:56:47.133,6883832,975367,889879,2,2,2,2,2
2025-09-03 12:56:47.160,6883825,975233,889724,2,2,2,2,2
2025-09-03 12:56:47.188,6883363,958346,905501,2,2,2,2,2
2025-09-03 12:56:47.215,2688925,958145,888814,2,2,2,2,2
2025-09-03 12:56:47.243,2688897,957671,888565,2,2,2,2,2
2025-09-03 12:56:47.270,6883094,957455,888305,2,2,2,2,2
2025-09-03 12:56:47.298,6882958,957212,904425,2,2,2,2,2
2025-09-03 12:56:47.326,2688398,956916,887299,2,2,2,2,2
2025-09-03 12:56:47.353,4785426,972834,887023,2,2,2,2,2
2025-09-03 12:56:47.381,6882323,956050,886556,2,2,2,2,2
2025-09-03 12:56:47.407,2687850,955596,886251,2,2,2,2,2
2025-09-03 12:56:47.434,6882057,955646,902399,2,2,2,2,2
2025-09-03 12:56:47.462,6881833,955031,901962,2,2,2,2,2
2025-09-03 12:56:47.489,6881677,962972,885012,2,2,2,2,2
2025-09-03 12:56:47.516,6881659,962566,884781,2,2,2,2,2
2025-09-03 12:56:47.544,6881303,953969,867955,2,2,2,2,2
2025-09-03 12:56:47.570,6881176,953754,884022,2,2,2,2,2
2025-09-03 12:56:47.598,2686838,953348,883604,2,2,2,2,2
2025-09-03 12:56:47.625,2686698,953077,883228,2,2,2,2,2
2025-09-03 12:56:47.652,2686608,952638,883063,2,2,2,2,2
2025-09-03 12:56:47.678,2686450,952364,882454,2,2,2,2,2
2025-09-03 12:56:47.704,6880256,951837,865768,2,2,2,2,2
2025-09-03 12:56:47.732,6880212,951658,865505,2,2,2,2,2
2025-09-03 12:56:47.759,6880075,951268,881309,2,2,2,2,2
2025-09-03 12:56:47.786,6879798,950893,864575,2,2,2,2,2
2025-09-03 12:56:47.814,2685599,950562,880789,2,2,2,2,2
2025-09-03 12:56:47.841,6879726,950285,863818,2,2,2,2,2
2025-09-03 12:56:47.869,4782177,933389,879869,2,2,2,2,2
2025-09-03 12:56:47.896,6879342,949655,879808,2,2,2,2,2
2025-09-03 12:56:47.923,4782214,933061,879348,2,2,2,2,2
2025-09-03 12:56:47.950,6879206,949122,879007,2,2,2,2,2
2025-09-03 12:56:47.979,6878953,948738,862194,2,2,2,2,2
2025-09-03 12:56:48.006,6878738,948229,878199,2,2,2,2,2
2025-09-03 12:56:48.034,6878607,931597,877681,2,2,2,2,2
2025-09-03 12:56:48.061,2684050,947671,877283,2,2,2,2,2
2025-09-03 12:56:48.089,2683892,947417,876908,2,2,2,2,2
2025-09-03 12:56:48.117,6878108,947194,876598,2,2,2,2,2
2025-09-03 12:56:48.143,6877971,930355,860010,2,2,2,2,2
2025-09-03 12:56:48.170,6877924,946530,859720,2,2,2,2,2
2025-09-03 12:56:48.197,6877908,946155,859332,2,2,2,2,2
2025-09-03 12:56:48.224,6877640,945774,859110,2,2,2,2,2
2025-09-03 12:56:48.251,6877664,945439,858659,2,2,2,2,2
2025-09-03 12:56:48.278,6877464,945181,858376,2,2,2,2,2
2025-09-03 12:56:48.305,6877187,944875,857887,2,2,2,2,2
2025-09-03 12:56:48.333,6877040,944610,865788,2,2,2,2,2
2025-09-03 12:56:48.360,6876827,944359,857289,2,2,2,2,2
2025-09-03 12:56:48.388,6876657,943740,856585,2,2,2,2,2
2025-09-03 12:56:48.415,6876771,943750,856577,2,2,2,2,2
2025-09-03 12:56:48.444,6876642,943222,856204,2,2,2,2,2
2025-09-03 12:56:48.470,6876394,934662,855552,2,2,2,2,2
2025-09-03 12:56:48.497,6876356,942824,855405,2,2,2,2,2
2025-09-03 12:56:48.525,6876001,942315,855068,2,2,2,2,2
2025-09-03 12:56:48.551,6876007,925584,854763,2,2,2,2,2
2025-09-03 12:56:48.579,6875831,925408,854417,2,2,2,2,2
2025-09-03 12:56:48.607,6875768,924929,854232,2,2,2,2,2
2025-09-03 12:56:48.635,6875488,924544,853734,2,2,2,2,2
2025-09-03 12:56:48.663,6875414,924407,853252,2,2,2,2,2
2025-09-03 12:56:48.690,2672621,923935,852747,2,2,2,2,2
2025-09-03 12:56:48.717,6874885,931844,852687,2,2,2,2,2
2025-09-03 12:56:48.744,6874867,931450,852210,2,2,2,2,2
2025-09-03 12:56:48.771,6874671,923015,917432,2,2,2,2,2
2025-09-03 12:56:48.798,6874517,922756,917050,2,2,2,2,2
2025-09-03 12:56:48.824,2671880,922569,916835,2,2,2,2,2
2025-09-03 12:56:48.851,4776961,921872,916358,2,2,2,2,2
2025-09-03 12:56:48.879,2671751,921628,916083,2,2,2,2,2
2025-09-03 12:56:48.906,2671587,921363,915725,2,2,2,2,2
2025-09-03 12:56:48.933,6874054,921202,915209,2,2,2,2,2
2025-09-03 12:56:48.962,2671504,920835,915063,2,2,2,2,2
2025-09-03 12:56:48.988,6873607,920333,914463,2,2,2,2,2
2025-09-03 12:56:49.016,6873360,920302,914394,2,2,2,2,2
2025-09-03 12:56:49.042,4776424,919858,914148,2,2,2,2,2
2025-09-03 12:56:49.070,6873525,919687,913913,2,2,2,2,2
2025-09-03 12:56:49.097,2670616,919277,913392,2,2,2,2,2
2025-09-03 12:56:49.125,6856676,919018,912882,2,2,2,2,2
2025-09-03 12:56:49.152,6856222,918520,912526,2,2,2,2,2
2025-09-03 12:56:49.179,6856077,918016,911996,2,2,2,2,2
2025-09-03 12:56:49.207,2661760,917961,911773,2,2,2,2,2
2025-09-03 12:56:49.235,2669727,917557,911474,2,2,2,2,2
2025-09-03 12:56:49.262,6855711,982662,910871,2,2,2,2,2
2025-09-03 12:56:49.289,6855446,982276,910390,2,2,2,2,2
2025-09-03 12:56:49.316,2661015,982043,910108,2,2,2,2,2
2025-09-03 12:56:49.343,2661124,981795,910069,2,2,2,2,2
2025-09-03 12:56:49.371,4758138,981559,909719,2,2,2,2,2
2025-09-03 12:56:49.398,6855136,981023,892734,2,2,2,2,2
2025-09-03 12:56:49.426,6855013,980843,892455,2,2,2,2,2
2025-09-03 12:56:49.453,6871092,980735,908696,2,2,2,2,2
2025-09-03 12:56:49.481,6854914,980509,908471,2,2,2,2,2
2025-09-03 12:56:49.508,2660338,979923,891633,2,2,2,2,2
2025-09-03 12:56:49.535,6870651,979694,899300,2,2,2,2,2
2025-09-03 12:56:49.563,6854280,979357,890666,2,2,2,2,2
2025-09-03 12:56:49.589,6870535,979173,890394,2,2,2,2,2
2025-09-03 12:56:49.617,2667923,978682,890130,2,2,2,2,2
2025-09-03 12:56:49.645,6853879,978427,906230,2,2,2,2,2
2025-09-03 12:56:49.671,6853733,978169,889480,2,2,2,2,2
2025-09-03 12:56:49.698,6869814,977547,905457,2,2,2,2,2
2025-09-03 12:56:49.726,6853367,969203,888584,2,2,2,2,2
2025-09-03 12:56:49.753,2667122,977131,888464,2,2,2,2,2
2025-09-03 12:56:49.781,2659066,976899,888185,2,2,2,2,2
2025-09-03 12:56:49.808,4756107,976684,887953,2,2,2,2,2
2025-09-03 12:56:49.835,4755738,976354,887455,2,2,2,2,2
2025-09-03 12:56:49.863,2658324,975900,887042,2,2,2,2,2
2025-09-03 12:56:49.891,2658171,975609,886634,2,2,2,2,2
2025-09-03 12:56:49.919,6852408,975244,902808,2,2,2,2,2
2025-09-03 12:56:49.946,6868723,975072,902281,2,2,2,2,2
2025-09-03 12:56:49.973,6868618,958221,902034,2,2,2,2,2
2025-09-03 12:56:50.000,6852154,958090,901837,2,2,2,2,2
2025-09-03 12:56:50.027,6851861,957695,901370,2,2,2,2,2
2025-09-03 12:56:50.054,6868228,957320,884576,2,2,2,2,2
2025-09-03 12:56:50.082,6851572,956931,867723,2,2,2,2,2
2025-09-03 12:56:50.109,6851785,956785,867762,2,2,2,2,2
2025-09-03 12:56:50.137,6867996,956642,867560,2,2,2,2,2
2025-09-03 12:56:50.164,6851534,956387,866953,2,2,2,2,2
2025-09-03 12:56:50.191,6851032,955800,866380,2,2,2,2,2
2025-09-03 12:56:50.218,2656648,955414,882554,2,2,2,2,2
2025-09-03 12:56:50.246,6851069,955165,865904,2,2,2,2,2
2025-09-03 12:56:50.273,2672655,954870,881896,2,2,2,2,2
2025-09-03 12:56:50.299,2656374,954642,881545,2,2,2,2,2
2025-09-03 12:56:50.325,6850561,962682,881352,2,2,2,2,2
2025-09-03 12:56:50.351,6850338,954223,864623,2,2,2,2,2
2025-09-03 12:56:50.379,6866551,953608,872427,2,2,2,2,2
2025-09-03 12:56:50.406,6866545,953487,871940,2,2,2,2,2
2025-09-03 12:56:50.434,6849948,953240,880086,2,2,2,2,2
2025-09-03 12:56:50.460,6849796,953056,879674,2,2,2,2,2
2025-09-03 12:56:50.488,4752737,969102,879362,2,2,2,2,2
2025-09-03 12:56:50.515,6866161,952288,870908,2,2,2,2,2
2025-09-03 12:56:50.542,6849540,951948,862387,2,2,2,2,2
2025-09-03 12:56:50.569,6865686,951657,861709,2,2,2,2,2
2025-09-03 12:56:50.596,6849529,951527,861765,2,2,2,2,2
2025-09-03 12:56:50.623,6865656,951153,869534,2,2,2,2,2
2025-09-03 12:56:50.649,2654748,950832,877434,2,2,2,2,2
2025-09-03 12:56:50.677,2654618,950322,876824,2,2,2,2,2
2025-09-03 12:56:50.704,6848760,950114,876770,2,2,2,2,2
2025-09-03 12:56:50.730,6848513,950006,859937,2,2,2,2,2
2025-09-03 12:56:50.759,6848272,933056,859627,2,2,2,2,2
2025-09-03 12:56:50.785,2653964,949032,859161,2,2,2,2,2
2025-09-03 12:56:50.812,4750861,932368,858851,2,2,2,2,2
2025-09-03 12:56:50.840,6848101,932330,858394,2,2,2,2,2
2025-09-03 12:56:50.867,6847758,948325,858157,2,2,2,2,2
2025-09-03 12:56:50.895,2653436,947962,857827,2,2,2,2,2
2025-09-03 12:56:50.922,2653314,947701,857501,2,2,2,2,2
2025-09-03 12:56:50.949,6847475,947447,857218,2,2,2,2,2
2025-09-03 12:56:50.976,6847023,946715,856705,2,2,2,2,2
2025-09-03 12:56:51.003,6847082,946679,856300,2,2,2,2,2
2025-09-03 12:56:51.031,4749935,929855,856084,2,2,2,2,2
2025-09-03 12:56:51.058,2652565,945970,855784,2,2,2,2,2
2025-09-03 12:56:51.085,6846929,945674,855337,2,2,2,2,2
2025-09-03 12:56:51.113,6846446,945390,854990,2,2,2,2,2
2025-09-03 12:56:51.140,2652160,945094,854626,2,2,2,2,2
2025-09-03 12:56:51.167,2651896,944651,854141,2,2,2,2,2
2025-09-03 12:56:51.194,6846174,944277,853956,2,2,2,2,2
2025-09-03 12:56:51.222,6845805,935932,853486,2,2,2,2,2
2025-09-03 12:56:51.250,2651522,943834,853350,2,2,2,2,2
2025-09-03 12:56:51.276,2651265,943554,852981,2,2,2,2,2
2025-09-03 12:56:51.305,6845562,943088,852493,2,2,2,2,2
2025-09-03 12:56:51.332,2651151,942875,852236,2,2,2,2,2
2025-09-03 12:56:51.359,6845172,942490,851906,2,2,2,2,2
2025-09-03 12:56:51.387,4747920,925708,851609,2,2,2,2,2
2025-09-03 12:56:51.415,6845051,933752,851420,2,2,2,2,2
2025-09-03 12:56:51.443,2650617,925394,850913,2,2,2,2,2
2025-09-03 12:56:51.469,2650350,924710,850463,2,2,2,2,2
2025-09-03 12:56:51.497,6844531,932709,849932,2,2,2,2,2
2025-09-03 12:56:51.524,6844424,924319,849946,2,2,2,2,2
2025-09-03 12:56:51.551,6827886,924061,849638,2,2,2,2,2
2025-09-03 12:56:51.579,6844400,923784,849291,2,2,2,2,2
2025-09-03 12:56:51.607,4746858,923336,848773,2,2,2,2,2
2025-09-03 12:56:51.634,2633207,922902,848527,2,2,2,2,2
2025-09-03 12:56:51.660,2641024,922414,848016,2,2,2,2,2
2025-09-03 12:56:51.687,2641304,922388,847888,2,2,2,2,2
2025-09-03 12:56:51.714,6827019,922208,847374,2,2,2,2,2
2025-09-03 12:56:51.740,2640911,921856,847244,2,2,2,2,2
2025-09-03 12:56:51.767,2640884,921407,846822,2,2,2,2,2
2025-09-03 12:56:51.795,2648453,921058,846238,2,2,2,2,2
2025-09-03 12:56:51.823,6842778,920719,846016,2,2,2,2,2
2025-09-03 12:56:51.850,6842728,920476,845619,2,2,2,2,2
2025-09-03 12:56:51.877,2631927,920312,845343,2,2,2,2,2
2025-09-03 12:56:51.904,2631958,920049,845310,2,2,2,2,2
2025-09-03 12:56:51.932,2648083,919613,844656,2,2,2,2,2
2025-09-03 12:56:51.959,2647944,919245,844316,2,2,2,2,2
2025-09-03 12:56:51.986,6825613,918892,843931,2,2,2,2,2
2025-09-03 12:56:52.014,6842082,918811,843874,2,2,2,2,2
2025-09-03 12:56:52.041,2639590,918770,827269,2,2,2,2,2
2025-09-03 12:56:52.067,2647648,918261,826754,2,2,2,2,2
2025-09-03 12:56:52.095,2639108,917811,826525,2,2,2,2,2
2025-09-03 12:56:52.122,2639092,917746,826118,2,2,2,2,2
2025-09-03 12:56:52.148,2647050,917464,825745,2,2,2,2,2
2025-09-03 12:56:52.176,6841377,917134,842044,2,2,2,2,2
2025-09-03 12:56:52.203,6824756,916759,841605,2,2,2,2,2
2025-09-03 12:56:52.231,6841290,916581,841336,2,2,2,2,2
2025-09-03 12:56:52.259,2646790,916274,824595,2,2,2,2,2
2025-09-03 12:56:52.287,6841132,915980,824542,2,2,2,2,2
2025-09-03 12:56:52.314,6824464,915859,832260,2,2,2,2,2
2025-09-03 12:56:52.341,6824427,915434,831744,2,2,2,2,2
2025-09-03 12:56:52.368,6840817,915083,823422,2,2,2,2,2
2025-09-03 12:56:52.395,6840687,914892,823169,2,2,2,2,2
2025-09-03 12:56:52.423,6823873,914315,838904,2,2,2,2,2
2025-09-03 12:56:52.450,4726773,914367,822497,2,2,2,2,2
2025-09-03 12:56:52.478,6823662,913778,838146,2,2,2,2,2
2025-09-03 12:56:52.505,6823713,913773,838085,2,2,2,2,2
2025-09-03 12:56:52.532,6823487,913162,837705,2,2,2,2,2
2025-09-03 12:56:52.559,6823479,913126,837577,2,2,2,2,2
2025-09-03 12:56:52.586,6823163,912624,837047,2,2,2,2,2
2025-09-03 12:56:52.613,6823420,912531,836916,2,2,2,2,2
2025-09-03 12:56:52.641,2637064,912160,820118,2,2,2,2,2
2025-09-03 12:56:52.669,2628601,911845,819465,2,2,2,2,2
2025-09-03 12:56:52.697,4725620,911607,819359,2,2,2,2,2
2025-09-03 12:56:52.725,6822458,911209,818945,2,2,2,2,2
2025-09-03 12:56:52.753,6822358,910728,818436,2,2,2,2,2
2025-09-03 12:56:52.781,6822358,910695,801911,2,2,2,2,2
2025-09-03 12:56:52.809,6822398,910357,817934,2,2,2,2,2
2025-09-03 12:56:52.836,6821929,909853,801266,2,2,2,2,2
2025-09-03 12:56:52.864,4724735,909782,817152,2,2,2,2,2
2025-09-03 12:56:52.891,6821760,901095,816893,2,2,2,2,2
2025-09-03 12:56:52.918,2635756,892911,816798,2,2,2,2,2
2025-09-03 12:56:52.944,2627431,892429,816629,2,2,2,2,2
2025-09-03 12:56:52.972,6821358,891933,799641,2,2,2,2,2
2025-09-03 12:56:52.999,2627071,891940,815732,2,2,2,2,2
2025-09-03 12:56:53.026,2626825,891394,815354,2,2,2,2,2
2025-09-03 12:56:53.054,6821218,891360,815232,2,2,2,2,2
2025-09-03 12:56:53.083,6821054,891111,798312,2,2,2,2,2
2025-09-03 12:56:53.110,6820838,890756,798148,2,2,2,2,2
2025-09-03 12:56:53.137,2626537,890385,814100,2,2,2,2,2
2025-09-03 12:56:53.165,4723429,906452,813712,2,2,2,2,2
2025-09-03 12:56:53.193,6820393,889849,797053,2,2,2,2,2
2025-09-03 12:56:53.220,6820573,889598,796749,2,2,2,2,2
2025-09-03 12:56:53.246,6820064,888988,796405,2,2,2,2,2
2025-09-03 12:56:53.274,6820047,888602,812312,2,2,2,2,2
2025-09-03 12:56:53.301,6819791,888334,803827,2,2,2,2,2
2025-09-03 12:56:53.329,2625436,888222,811547,2,2,2,2,2
2025-09-03 12:56:53.356,6819542,887658,794753,2,2,2,2,2
2025-09-03 12:56:53.383,2625132,887435,794508,2,2,2,2,2
2025-09-03 12:56:53.411,6819081,887289,802535,2,2,2,2,2
2025-09-03 12:56:53.438,2624788,887019,793956,2,2,2,2,2
2025-09-03 12:56:53.464,2624518,886317,793487,2,2,2,2,2
2025-09-03 12:56:53.492,6818942,886393,801417,2,2,2,2,2
2025-09-03 12:56:53.520,6818792,885866,801041,2,2,2,2,2
2025-09-03 12:56:53.548,2624373,885706,792592,2,2,2,2,2
2025-09-03 12:56:53.576,6818757,885610,792466,2,2,2,2,2
2025-09-03 12:56:53.602,6818326,901562,792032,2,2,2,2,2
2025-09-03 12:56:53.630,6818547,885000,799994,2,2,2,2,2
2025-09-03 12:56:53.657,2623974,884697,791326,2,2,2,2,2
2025-09-03 12:56:53.683,6818063,884457,791067,2,2,2,2,2
2025-09-03 12:56:53.711,2623729,883975,790887,2,2,2,2,2
2025-09-03 12:56:53.739,4720750,867377,790536,2,2,2,2,2
2025-09-03 12:56:53.766,6817782,883588,790113,2,2,2,2,2
2025-09-03 12:56:53.793,6817766,883225,789960,2,2,2,2,2
2025-09-03 12:56:53.821,4720365,866554,789521,2,2,2,2,2
2025-09-03 12:56:53.848,6817686,882803,789362,2,2,2,2,2
2025-09-03 12:56:53.875,6817411,882421,788890,2,2,2,2,2
2025-09-03 12:56:53.902,6817205,882077,788509,2,2,2,2,2
2025-09-03 12:56:53.929,6817122,881925,788286,2,2,2,2,2
2025-09-03 12:56:53.957,6817010,881510,788094,2,2,2,2,2
2025-09-03 12:56:53.984,6816633,864689,787590,2,2,2,2,2
2025-09-03 12:56:54.012,2622234,880908,787359,2,2,2,2,2
2025-09-03 12:56:54.038,6816622,880885,787042,2,2,2,2,2
2025-09-03 12:56:54.066,6816500,872200,786708,2,2,2,2,2
2025-09-03 12:56:54.093,2622229,880371,786660,2,2,2,2,2
2025-09-03 12:56:54.120,6816011,879739,851470,2,2,2,2,2
2025-09-03 12:56:54.147,2621941,879374,851345,2,2,2,2,2
2025-09-03 12:56:54.174,6815766,862727,850788,2,2,2,2,2
2025-09-03 12:56:54.200,4718828,862520,850797,2,2,2,2,2
2025-09-03 12:56:54.227,6815931,878598,850400,2,2,2,2,2
2025-09-03 12:56:54.255,6881270,878578,850018,2,2,2,2,2
2025-09-03 12:56:54.283,6881033,869780,849657,2,2,2,2,2
2025-09-03 12:56:54.310,2686612,877829,849418,2,2,2,2,2
2025-09-03 12:56:54.338,6880811,877421,848911,2,2,2,2,2
2025-09-03 12:56:54.366,6880534,860623,848512,2,2,2,2,2
2025-09-03 12:56:54.393,6880484,860222,848269,2,2,2,2,2
2025-09-03 12:56:54.420,2686076,860050,848102,2,2,2,2,2
2025-09-03 12:56:54.447,6880130,859770,839539,2,2,2,2,2
2025-09-03 12:56:54.474,6879976,859517,847133,2,2,2,2,2
2025-09-03 12:56:54.501,6879962,859150,847055,2,2,2,2,2
2025-09-03 12:56:54.529,6879972,859116,846600,2,2,2,2,2
2025-09-03 12:56:54.556,2685414,858754,846478,2,2,2,2,2
2025-09-03 12:56:54.583,2685178,858143,845826,2,2,2,2,2
2025-09-03 12:56:54.611,4782218,857987,845584,2,2,2,2,2
2025-09-03 12:56:54.638,6879364,857609,845451,2,2,2,2,2
2025-09-03 12:56:54.665,6879201,857360,836972,2,2,2,2,2
2025-09-03 12:56:54.693,2684446,856864,844567,2,2,2,2,2
2025-09-03 12:56:54.721,2684784,856837,844440,2,2,2,2,2
2025-09-03 12:56:54.748,6878939,856594,844163,2,2,2,2,2
2025-09-03 12:56:54.775,6878694,856312,843774,2,2,2,2,2
2025-09-03 12:56:54.803,6878594,856177,827163,2,2,2,2,2
2025-09-03 12:56:54.830,2684019,855800,826758,2,2,2,2,2
2025-09-03 12:56:54.858,6878518,855687,843006,2,2,2,2,2
2025-09-03 12:56:54.884,6878149,855185,842437,2,2,2,2,2
2025-09-03 12:56:54.912,6878227,854980,826012,2,2,2,2,2
2025-09-03 12:56:54.939,4780917,854718,825454,2,2,2,2,2
2025-09-03 12:56:54.966,4780927,854324,825325,2,2,2,2,2
2025-09-03 12:56:54.993,6877709,854244,824841,2,2,2,2,2
2025-09-03 12:56:55.020,6877695,853891,824772,2,2,2,2,2
2025-09-03 12:56:55.047,6877537,853318,824085,2,2,2,2,2
2025-09-03 12:56:55.074,6877366,853130,832020,2,2,2,2,2
2025-09-03 12:56:55.102,2674576,852747,823398,2,2,2,2,2
2025-09-03 12:56:55.128,2682849,852485,823301,2,2,2,2,2
2025-09-03 12:56:55.155,4779896,852344,823056,2,2,2,2,2
2025-09-03 12:56:55.183,6876935,852205,839233,2,2,2,2,2
2025-09-03 12:56:55.211,6876699,917145,838602,2,2,2,2,2
2025-09-03 12:56:55.239,4779391,916952,821889,2,2,2,2,2
2025-09-03 12:56:55.266,6876633,916617,837902,2,2,2,2,2
2025-09-03 12:56:55.294,4779131,916224,821363,2,2,2,2,2
2025-09-03 12:56:55.322,2673774,916174,820861,2,2,2,2,2
2025-09-03 12:56:55.350,6875929,915714,837106,2,2,2,2,2
2025-09-03 12:56:55.377,2681715,915446,820345,2,2,2,2,2
2025-09-03 12:56:55.404,4778515,915065,819864,2,2,2,2,2
2025-09-03 12:56:55.431,6875657,914701,819472,2,2,2,2,2
2025-09-03 12:56:55.459,6875405,914668,819341,2,2,2,2,2
2025-09-03 12:56:55.487,2680969,914163,818818,2,2,2,2,2
2025-09-03 12:56:55.514,6875131,913919,818539,2,2,2,2,2
2025-09-03 12:56:55.542,6875138,913888,802027,2,2,2,2,2
2025-09-03 12:56:55.569,2680861,913614,818046,2,2,2,2,2
2025-09-03 12:56:55.596,6874887,904720,817632,2,2,2,2,2
2025-09-03 12:56:55.623,2680442,912654,817270,2,2,2,2,2
2025-09-03 12:56:55.651,6874868,912737,817201,2,2,2,2,2
2025-09-03 12:56:55.678,6874638,904216,816887,2,2,2,2,2
2025-09-03 12:56:55.705,6874865,904082,816682,2,2,2,2,2
2025-09-03 12:56:55.732,2680162,911825,816151,2,2,2,2,2
2025-09-03 12:56:55.759,6874329,911594,799536,2,2,2,2,2
2025-09-03 12:56:55.786,4777208,911286,815768,2,2,2,2,2
2025-09-03 12:56:55.814,6873882,910728,798542,2,2,2,2,2
2025-09-03 12:56:55.841,6873843,910337,806533,2,2,2,2,2
2025-09-03 12:56:55.869,6873870,910320,798231,2,2,2,2,2
2025-09-03 12:56:55.898,6873589,909850,805993,2,2,2,2,2
2025-09-03 12:56:55.925,2679265,909801,813970,2,2,2,2,2
2025-09-03 12:56:55.951,6873145,892681,797168,2,2,2,2,2
2025-09-03 12:56:55.979,2678797,892479,813300,2,2,2,2,2
2025-09-03 12:56:56.005,6873187,892289,804756,2,2,2,2,2
2025-09-03 12:56:56.033,2670614,892179,812823,2,2,2,2,2
2025-09-03 12:56:56.060,4759531,908208,812392,2,2,2,2,2
2025-09-03 12:56:56.087,4759268,907839,811919,2,2,2,2,2
2025-09-03 12:56:56.114,6872673,891256,803485,2,2,2,2,2
2025-09-03 12:56:56.142,6856387,891023,795007,2,2,2,2,2
2025-09-03 12:56:56.170,2669839,890574,794468,2,2,2,2,2
2025-09-03 12:56:56.198,6855800,890254,794115,2,2,2,2,2
2025-09-03 12:56:56.225,6855932,898538,794115,2,2,2,2,2
2025-09-03 12:56:56.252,6855885,889876,793613,2,2,2,2,2
2025-09-03 12:56:56.279,6855545,897773,793556,2,2,2,2,2
2025-09-03 12:56:56.306,6855637,889586,793158,2,2,2,2,2
2025-09-03 12:56:56.333,6855384,888986,792808,2,2,2,2,2
2025-09-03 12:56:56.359,6871739,888956,800885,2,2,2,2,2
2025-09-03 12:56:56.386,6855315,904984,792289,2,2,2,2,2
2025-09-03 12:56:56.412,2668820,888263,792061,2,2,2,2,2
2025-09-03 12:56:56.439,4757891,904662,791784,2,2,2,2,2
2025-09-03 12:56:56.467,6871095,887569,791311,2,2,2,2,2
2025-09-03 12:56:56.495,6854668,887443,791071,2,2,2,2,2
2025-09-03 12:56:56.522,6855027,887440,791036,2,2,2,2,2
2025-09-03 12:56:56.550,2668301,887032,790387,2,2,2,2,2
2025-09-03 12:56:56.576,2676599,886554,790115,2,2,2,2,2
2025-09-03 12:56:56.603,6870787,886403,789872,2,2,2,2,2
2025-09-03 12:56:56.630,2659956,902608,789533,2,2,2,2,2
2025-09-03 12:56:56.658,6854263,902221,789474,2,2,2,2,2
2025-09-03 12:56:56.685,4756870,902000,788856,2,2,2,2,2
2025-09-03 12:56:56.712,2659340,901572,788610,2,2,2,2,2
2025-09-03 12:56:56.739,6853415,884861,787976,2,2,2,2,2
2025-09-03 12:56:56.766,6853181,884338,787640,2,2,2,2,2
2025-09-03 12:56:56.794,6869741,884328,787577,2,2,2,2,2
2025-09-03 12:56:56.821,6853145,884078,787313,2,2,2,2,2
2025-09-03 12:56:56.849,4755831,867132,786692,2,2,2,2,2
2025-09-03 12:56:56.876,6869376,883477,786558,2,2,2,2,2
2025-09-03 12:56:56.904,4755954,866833,786543,2,2,2,2,2
2025-09-03 12:56:56.929,2674967,882974,786275,2,2,2,2,2
2025-09-03 12:56:56.956,6852968,866353,785911,2,2,2,2,2
2025-09-03 12:56:56.983,4755711,866167,785676,2,2,2,2,2
2025-09-03 12:56:57.010,6852621,882279,785365,2,2,2,2,2
2025-09-03 12:56:57.037,6852353,881888,784897,2,2,2,2,2
2025-09-03 12:56:57.065,6868752,881564,784532,2,2,2,2,2
2025-09-03 12:56:57.092,6852633,881783,784653,2,2,2,2,2
2025-09-03 12:56:57.120,6868673,881302,784145,2,2,2,2,2
2025-09-03 12:56:57.146,6852456,864753,783891,2,2,2,2,2
2025-09-03 12:56:57.174,6852125,880751,783416,2,2,2,2,2
2025-09-03 12:56:57.201,2657633,880410,783107,2,2,2,2,2
2025-09-03 12:56:57.228,2674147,880238,783093,2,2,2,2,2
2025-09-03 12:56:57.256,6851813,871450,782397,2,2,2,2,2
2025-09-03 12:56:57.283,6851798,879587,782302,2,2,2,2,2
2025-09-03 12:56:57.310,2673661,879331,781958,2,2,2,2,2
2025-09-03 12:56:57.338,2657161,878877,781723,2,2,2,2,2
2025-09-03 12:56:57.365,6867615,878595,781085,2,2,2,2,2
2025-09-03 12:56:57.393,6851269,878472,780928,2,2,2,2,2
2025-09-03 12:56:57.421,6851070,869783,780738,2,2,2,2,2
2025-09-03 12:56:57.448,6850850,877962,780344,2,2,2,2,2
2025-09-03 12:56:57.476,2656395,877515,779778,2,2,2,2,2
2025-09-03 12:56:57.503,6866933,877212,779758,2,2,2,2,2
2025-09-03 12:56:57.530,2656005,877014,779397,2,2,2,2,2
2025-09-03 12:56:57.556,4753257,860387,779119,2,2,2,2,2
2025-09-03 12:56:57.584,6866680,859916,770674,2,2,2,2,2
2025-09-03 12:56:57.613,6866635,859771,778356,2,2,2,2,2
2025-09-03 12:56:57.641,6866254,859376,769948,2,2,2,2,2
2025-09-03 12:56:57.668,2655508,859187,761351,2,2,2,2,2
2025-09-03 12:56:57.695,2655368,858674,761068,2,2,2,2,2
2025-09-03 12:56:57.722,2671840,858415,760703,2,2,2,2,2
2025-09-03 12:56:57.748,2655371,858366,760563,2,2,2,2,2
2025-09-03 12:56:57.776,2671365,857861,760295,2,2,2,2,2
2025-09-03 12:56:57.804,6849227,857705,776177,2,2,2,2,2
2025-09-03 12:56:57.830,6849025,865410,759530,2,2,2,2,2
2025-09-03 12:56:57.858,6865537,857317,759269,2,2,2,2,2
2025-09-03 12:56:57.885,6865450,856929,775421,2,2,2,2,2
2025-09-03 12:56:57.913,4751874,856758,758804,2,2,2,2,2
2025-09-03 12:56:57.941,6849007,856350,774863,2,2,2,2,2
2025-09-03 12:56:57.969,2654309,855851,757884,2,2,2,2,2
2025-09-03 12:56:57.996,2654308,855838,757776,2,2,2,2,2
2025-09-03 12:56:58.024,6848271,855436,773690,2,2,2,2,2
2025-09-03 12:56:58.050,6831940,855421,757227,2,2,2,2,2
2025-09-03 12:56:58.077,6848227,854942,756732,2,2,2,2,2
2025-09-03 12:56:58.104,6848005,854763,756706,2,2,2,2,2
2025-09-03 12:56:58.131,2653582,854286,756217,2,2,2,2,2
2025-09-03 12:56:58.158,6831327,854012,772237,2,2,2,2,2
2025-09-03 12:56:58.185,6847514,853871,772020,2,2,2,2,2
2025-09-03 12:56:58.212,6847722,853635,771792,2,2,2,2,2
2025-09-03 12:56:58.239,6831352,853360,755044,2,2,2,2,2
2025-09-03 12:56:58.266,6847364,853150,754724,2,2,2,2,2
2025-09-03 12:56:58.294,6847353,852844,754573,2,2,2,2,2
2025-09-03 12:56:58.321,6847214,852611,753979,2,2,2,2,2
2025-09-03 12:56:58.348,6830816,852243,753919,2,2,2,2,2
2025-09-03 12:56:58.375,6830591,851998,737249,2,2,2,2,2
2025-09-03 12:56:58.402,2652414,851703,752925,2,2,2,2,2
2025-09-03 12:56:58.430,4749693,851473,752913,2,2,2,2,2
2025-09-03 12:56:58.458,4749206,850947,752382,2,2,2,2,2
2025-09-03 12:56:58.485,6829877,850573,735591,2,2,2,2,2
2025-09-03 12:56:58.512,4749180,850490,751859,2,2,2,2,2
2025-09-03 12:56:58.539,6846190,850064,735210,2,2,2,2,2
2025-09-03 12:56:58.565,6846186,850016,751135,2,2,2,2,2
2025-09-03 12:56:58.593,2651796,849898,750992,2,2,2,2,2
2025-09-03 12:56:58.619,6829556,849562,750698,2,2,2,2,2
2025-09-03 12:56:58.646,6845718,849377,733963,2,2,2,2,2
2025-09-03 12:56:58.675,6845478,848796,733599,2,2,2,2,2
2025-09-03 12:56:58.701,6845551,848768,749864,2,2,2,2,2
2025-09-03 12:56:58.729,6845195,848370,733139,2,2,2,2,2
2025-09-03 12:56:58.756,6828953,847893,749202,2,2,2,2,2
2025-09-03 12:56:58.783,6845221,847749,732612,2,2,2,2,2
2025-09-03 12:56:58.810,2650873,847611,748786,2,2,2,2,2
2025-09-03 12:56:58.838,6828440,847209,748053,2,2,2,2,2
2025-09-03 12:56:58.864,6844783,846749,747874,2,2,2,2,2
2025-09-03 12:56:58.892,2650380,846605,747662,2,2,2,2,2
2025-09-03 12:56:58.919,6844630,846454,731064,2,2,2,2,2
2025-09-03 12:56:58.947,2650136,846291,747144,2,2,2,2,2
2025-09-03 12:56:58.974,6844209,845722,730248,2,2,2,2,2
2025-09-03 12:56:59.002,6827752,845536,729953,2,2,2,2,2
2025-09-03 12:56:59.029,6827534,845283,737803,2,2,2,2,2
2025-09-03 12:56:59.057,6844016,836748,745956,2,2,2,2,2
2025-09-03 12:56:59.084,6843936,844908,729146,2,2,2,2,2
2025-09-03 12:56:59.112,6843907,836249,728877,2,2,2,2,2
2025-09-03 12:56:59.139,6843878,836204,728789,2,2,2,2,2
2025-09-03 12:56:59.166,6827325,844022,728317,2,2,2,2,2
2025-09-03 12:56:59.192,6843500,827273,727860,2,2,2,2,2
2025-09-03 12:56:59.219,6827150,827266,736028,2,2,2,2,2
2025-09-03 12:56:59.246,6826962,826724,727450,2,2,2,2,2
2025-09-03 12:56:59.273,6843366,834583,727100,2,2,2,2,2
2025-09-03 12:56:59.301,6843103,826356,726764,2,2,2,2,2
2025-09-03 12:56:59.327,6826554,825952,734702,2,2,2,2,2
2025-09-03 12:56:59.354,2648717,825645,726246,2,2,2,2,2
2025-09-03 12:56:59.380,6826247,825502,734193,2,2,2,2,2
2025-09-03 12:56:59.407,2640124,824880,725277,2,2,2,2,2
2025-09-03 12:56:59.435,6842424,824960,725283,2,2,2,2,2
2025-09-03 12:56:59.462,4745239,841018,725143,2,2,2,2,2
2025-09-03 12:56:59.489,6826168,824424,724887,2,2,2,2,2
2025-09-03 12:56:59.517,6825963,824081,724243,2,2,2,2,2
2025-09-03 12:56:59.544,6842266,832158,724166,2,2,2,2,2
2025-09-03 12:56:59.571,4744858,839820,723727,2,2,2,2,2
2025-09-03 12:56:59.599,6825483,823164,723456,2,2,2,2,2
2025-09-03 12:56:59.627,6841802,822939,723197,2,2,2,2,2
2025-09-03 12:56:59.655,6841586,839162,722920,2,2,2,2,2
2025-09-03 12:56:59.682,4744345,838711,722439,2,2,2,2,2
2025-09-03 12:56:59.708,6824965,822128,722177,2,2,2,2,2
2025-09-03 12:56:59.735,6841221,821908,721926,2,2,2,2,2
2025-09-03 12:56:59.763,6841098,821752,721656,2,2,2,2,2
2025-09-03 12:56:59.790,6841056,821370,721188,2,2,2,2,2
2025-09-03 12:56:59.817,2646682,821003,721046,2,2,2,2,2
2025-09-03 12:56:59.845,2646754,820739,786289,2,2,2,2,2
2025-09-03 12:56:59.872,2638085,820484,785943,2,2,2,2,2
2025-09-03 12:56:59.900,6824377,820325,785763,2,2,2,2,2
2025-09-03 12:56:59.925,6840631,820206,785602,2,2,2,2,2
2025-09-03 12:56:59.953,6840691,836222,785181,2,2,2,2,2
2025-09-03 12:56:59.980,6840566,836072,784925,2,2,2,2,2
2025-09-03 12:57:00.007,2637977,819249,784784,2,2,2,2,2
2025-09-03 12:57:00.034,4743187,802778,784540,2,2,2,2,2
2025-09-03 12:57:00.062,4726649,802510,784014,2,2,2,2,2
2025-09-03 12:57:00.089,6823724,818559,783871,2,2,2,2,2
2025-09-03 12:57:00.116,6823701,818435,783694,2,2,2,2,2
2025-09-03 12:57:00.143,6823903,818565,783800,2,2,2,2,2
2025-09-03 12:57:00.169,2629475,818386,783517,2,2,2,2,2
2025-09-03 12:57:00.196,6823691,817949,783123,2,2,2,2,2
2025-09-03 12:57:00.223,6823658,817565,782655,2,2,2,2,2
2025-09-03 12:57:00.251,6823453,817391,782387,2,2,2,2,2
2025-09-03 12:57:00.278,6823668,817255,782477,2,2,2,2,2
2025-09-03 12:57:00.306,2628993,817044,781978,2,2,2,2,2
2025-09-03 12:57:00.334,6823422,816879,781819,2,2,2,2,2
2025-09-03 12:57:00.361,6823201,816620,781745,2,2,2,2,2
2025-09-03 12:57:00.389,6823174,816252,781327,2,2,2,2,2
2025-09-03 12:57:00.417,6823306,816275,772869,2,2,2,2,2
2025-09-03 12:57:00.444,6823160,816028,780802,2,2,2,2,2
2025-09-03 12:57:00.471,4725736,799052,780405,2,2,2,2,2
2025-09-03 12:57:00.498,6822897,815365,772106,2,2,2,2,2
2025-09-03 12:57:00.525,2628750,815327,780138,2,2,2,2,2
2025-09-03 12:57:00.553,2628630,798706,779873,2,2,2,2,2
2025-09-03 12:57:00.581,6822783,814605,771429,2,2,2,2,2
2025-09-03 12:57:00.608,6822685,814731,779474,2,2,2,2,2
2025-09-03 12:57:00.636,6822673,814433,779013,2,2,2,2,2
2025-09-03 12:57:00.663,6822782,797719,778988,2,2,2,2,2
2025-09-03 12:57:00.690,6822404,813971,778507,2,2,2,2,2
2025-09-03 12:57:00.718,6822404,813679,778436,2,2,2,2,2
2025-09-03 12:57:00.744,6822527,797361,778467,2,2,2,2,2
2025-09-03 12:57:00.772,6822389,796812,761569,2,2,2,2,2
2025-09-03 12:57:00.799,6822378,812831,761191,2,2,2,2,2
2025-09-03 12:57:00.827,4725106,796559,761203,2,2,2,2,2
2025-09-03 12:57:00.855,6822301,796355,760946,2,2,2,2,2
2025-09-03 12:57:00.882,4725101,795912,760697,2,2,2,2,2
2025-09-03 12:57:00.910,6822118,812148,760512,2,2,2,2,2
2025-09-03 12:57:00.937,6822169,803962,760361,2,2,2,2,2
2025-09-03 12:57:00.965,6822003,811905,759830,2,2,2,2,2
2025-09-03 12:57:00.992,6821935,811621,776172,2,2,2,2,2
2025-09-03 12:57:01.020,2627590,811419,759557,2,2,2,2,2
2025-09-03 12:57:01.047,6821906,811146,767380,2,2,2,2,2
2025-09-03 12:57:01.073,6822140,811037,775449,2,2,2,2,2
2025-09-03 12:57:01.100,6822012,811127,759063,2,2,2,2,2
2025-09-03 12:57:01.128,6821857,794267,758624,2,2,2,2,2
2025-09-03 12:57:01.155,6821636,794010,774898,2,2,2,2,2
2025-09-03 12:57:01.182,6821557,793606,766226,2,2,2,2,2
2025-09-03 12:57:01.209,6821768,801950,757979,2,2,2,2,2
2025-09-03 12:57:01.237,6821656,793355,757742,2,2,2,2,2
2025-09-03 12:57:01.264,6821643,793243,773941,2,2,2,2,2
2025-09-03 12:57:01.292,6821650,793220,773877,2,2,2,2,2
2025-09-03 12:57:01.320,2627221,792793,756981,2,2,2,2,2
2025-09-03 12:57:01.347,6821305,792462,756621,2,2,2,2,2
2025-09-03 12:57:01.375,6821415,792567,756688,2,2,2,2,2
2025-09-03 12:57:01.403,6821358,792168,772583,2,2,2,2,2
2025-09-03 12:57:01.430,6821347,792059,772426,2,2,2,2,2
2025-09-03 12:57:01.458,2635243,791793,755716,2,2,2,2,2
2025-09-03 12:57:01.484,6821246,791578,755810,2,2,2,2,2
2025-09-03 12:57:01.512,2634753,791245,755306,2,2,2,2,2
2025-09-03 12:57:01.540,4723975,791116,755178,2,2,2,2,2
2025-09-03 12:57:01.567,6820966,799097,754913,2,2,2,2,2
2025-09-03 12:57:01.594,6821064,790652,754634,2,2,2,2,2
2025-09-03 12:57:01.622,6820852,790396,754210,2,2,2,2,2
2025-09-03 12:57:01.649,6820845,790292,754073,2,2,2,2,2
2025-09-03 12:57:01.676,6820857,790023,754047,2,2,2,2,2
2025-09-03 12:57:01.703,6820755,789892,753620,2,2,2,2,2
2025-09-03 12:57:01.729,6820590,789629,753207,2,2,2,2,2
2025-09-03 12:57:01.757,6820482,789247,753054,2,2,2,2,2
2025-09-03 12:57:01.785,6820294,788970,736369,2,2,2,2,2
2025-09-03 12:57:01.812,2634103,788794,752619,2,2,2,2,2
2025-09-03 12:57:01.839,6820336,788630,752368,2,2,2,2,2
2025-09-03 12:57:01.866,6819953,788213,751860,2,2,2,2,2
2025-09-03 12:57:01.893,6820100,788077,735238,2,2,2,2,2
2025-09-03 12:57:01.920,6819936,787828,751606,2,2,2,2,2
2025-09-03 12:57:01.948,6819863,787711,751156,2,2,2,2,2
2025-09-03 12:57:01.976,6819976,787463,751205,2,2,2,2,2
2025-09-03 12:57:02.002,6820039,787433,734454,2,2,2,2,2
2025-09-03 12:57:02.029,2625274,786709,750327,2,2,2,2,2
2025-09-03 12:57:02.056,6819836,786924,750284,2,2,2,2,2
2025-09-03 12:57:02.083,6819636,786459,733577,2,2,2,2,2
2025-09-03 12:57:02.110,2625125,851965,749593,2,2,2,2,2
2025-09-03 12:57:02.137,4722325,851766,749573,2,2,2,2,2
2025-09-03 12:57:02.164,4722302,851412,749157,2,2,2,2,2
2025-09-03 12:57:02.192,4721926,850941,748678,2,2,2,2,2
2025-09-03 12:57:02.219,6819090,850924,748576,2,2,2,2,2
2025-09-03 12:57:02.246,6819201,850676,740102,2,2,2,2,2
2025-09-03 12:57:02.274,6818851,850278,731455,2,2,2,2,2
2025-09-03 12:57:02.302,6818707,850058,747571,2,2,2,2,2
2025-09-03 12:57:02.328,2624645,849957,747756,2,2,2,2,2
2025-09-03 12:57:02.355,6818800,849517,730776,2,2,2,2,2
2025-09-03 12:57:02.383,4721305,849406,746775,2,2,2,2,2
2025-09-03 12:57:02.410,6818316,848908,738322,2,2,2,2,2
2025-09-03 12:57:02.437,6818517,848775,729971,2,2,2,2,2
2025-09-03 12:57:02.464,4721284,848660,746217,2,2,2,2,2
2025-09-03 12:57:02.491,6818418,848613,729709,2,2,2,2,2
2025-09-03 12:57:02.518,6818329,848257,745883,2,2,2,2,2
2025-09-03 12:57:02.546,6818247,848010,729027,2,2,2,2,2
2025-09-03 12:57:02.574,2623712,847745,728689,2,2,2,2,2
2025-09-03 12:57:02.601,2623622,847363,728470,2,2,2,2,2
2025-09-03 12:57:02.628,2623871,847595,728420,2,2,2,2,2
2025-09-03 12:57:02.656,6817933,847251,728305,2,2,2,2,2
2025-09-03 12:57:02.684,6817674,846707,735867,2,2,2,2,2
2025-09-03 12:57:02.711,2623628,846869,727819,2,2,2,2,2
2025-09-03 12:57:02.738,6818225,846850,736225,2,2,2,2,2
2025-09-03 12:57:02.765,2623752,846632,727782,2,2,2,2,2
2025-09-03 12:57:02.793,2623981,846550,727319,2,2,2,2,2
2025-09-03 12:57:02.819,6818304,846486,727551,2,2,2,2,2
2025-09-03 12:57:02.847,6818311,846466,735718,2,2,2,2,2
2025-09-03 12:57:02.873,6818565,846434,727404,2,2,2,2,2
2025-09-03 12:57:02.899,4721540,846536,727190,2,2,2,2,2
2025-09-03 12:57:02.925,6818838,846353,727347,2,2,2,2,2
2025-09-03 12:57:02.952,6819126,846622,727617,2,2,2,2,2
2025-09-03 12:57:02.978,2625142,846593,727551,2,2,2,2,2
2025-09-03 12:57:03.005,6819702,846751,727708,2,2,2,2,2
2025-09-03 12:57:03.034,6819952,846986,727744,2,2,2,2,2
2025-09-03 12:57:03.061,2625912,846903,727921,2,2,2,2,2
2025-09-03 12:57:03.088,6820449,847095,728054,2,2,2,2,2
2025-09-03 12:57:03.115,2626422,847104,728057,2,2,2,2,2
2025-09-03 12:57:03.142,6821307,847610,728321,2,2,2,2,2
2025-09-03 12:57:03.169,6821336,847598,728545,2,2,2,2,2
2025-09-03 12:57:03.196,6821643,847870,728576,2,2,2,2,2
2025-09-03 12:57:03.224,6822124,847995,728700,2,2,2,2,2
2025-09-03 12:57:03.252,2636417,848138,745477,2,2,2,2,2
2025-09-03 12:57:03.279,4725523,848195,745580,2,2,2,2,2
2025-09-03 12:57:03.305,6822960,848505,729546,2,2,2,2,2
2025-09-03 12:57:03.333,6823670,848781,729736,2,2,2,2,2
2025-09-03 12:57:03.360,6823696,849046,746204,2,2,2,2,2
2025-09-03 12:57:03.387,6840577,849181,746534,2,2,2,2,2
2025-09-03 12:57:03.415,6841060,849662,730362,2,2,2,2,2
2025-09-03 12:57:03.443,4744223,849691,746773,2,2,2,2,2
2025-09-03 12:57:03.471,6841647,849939,747026,2,2,2,2,2
2025-09-03 12:57:03.498,6842218,850160,747513,2,2,2,2,2
2025-09-03 12:57:03.525,4745340,850376,747764,2,2,2,2,2
2025-09-03 12:57:03.552,6843012,850591,748011,2,2,2,2,2
2025-09-03 12:57:03.579,6827003,850935,731644,2,2,2,2,2
2025-09-03 12:57:03.606,6843778,851303,748404,2,2,2,2,2
2025-09-03 12:57:03.635,2649860,851410,748703,2,2,2,2,2
2025-09-03 12:57:03.662,6844369,851472,732222,2,2,2,2,2
2025-09-03 12:57:03.689,6844817,851717,749060,2,2,2,2,2
2025-09-03 12:57:03.716,4747910,851900,749210,2,2,2,2,2
2025-09-03 12:57:03.743,2651161,786458,749336,2,2,2,2,2
2025-09-03 12:57:03.771,6829565,786847,749715,2,2,2,2,2
2025-09-03 12:57:03.798,6846188,787065,749606,2,2,2,2,2
2025-09-03 12:57:03.825,6830144,787179,733586,2,2,2,2,2
2025-09-03 12:57:03.853,6830596,787571,733797,2,2,2,2,2
2025-09-03 12:57:03.880,6847263,787577,734073,2,2,2,2,2
2025-09-03 12:57:03.907,2653598,788196,750821,2,2,2,2,2
