Timestamp,Ch1,Ch2,Ch3,Ch4,Ch5,Ch6,Ch7,Ch8
2025-09-03 13:26:21.555,-515854,-560114,-559994,-530711,2,2,2,2
2025-09-03 13:26:21.583,-499358,-559758,-559634,-530672,2,2,2,2
2025-09-03 13:26:21.609,-499323,-559663,-559858,-530612,2,2,2,2
2025-09-03 13:26:21.637,-499425,-559756,-559635,-530675,2,2,2,2
2025-09-03 13:26:21.663,-515723,-559738,-576015,-530663,2,2,2,2
2025-09-03 13:26:21.691,-516043,-559989,-576273,-530915,2,2,2,2
2025-09-03 13:26:21.718,-499567,-576313,-560126,-530818,2,2,2,2
2025-09-03 13:26:21.746,-499614,-576386,-559998,-530700,2,2,2,2
2025-09-03 13:26:21.774,-499670,-559984,-576296,-530934,2,2,2,2
2025-09-03 13:26:21.800,-515974,-559982,-559903,-530933,2,2,2,2
2025-09-03 13:26:21.827,-499673,-560018,-576392,-530786,2,2,2,2
2025-09-03 13:26:21.855,-507904,-560115,-560025,-530742,2,2,2,2
2025-09-03 13:26:21.882,-499557,-576262,-559861,-530841,2,2,2,2
2025-09-03 13:26:21.909,-507677,-559884,-559858,-530910,2,2,2,2
2025-09-03 13:26:21.937,-499496,-559882,-576252,-530928,2,2,2,2
2025-09-03 13:26:21.964,-516025,-559994,-576376,-530785,2,2,2,2
2025-09-03 13:26:21.991,-499467,-559856,-576246,-530840,2,2,2,2
2025-09-03 13:26:22.019,-499221,-559775,-559864,-530586,2,2,2,2
2025-09-03 13:26:22.046,-499319,-559620,-559632,-530672,2,2,2,2
2025-09-03 13:26:22.072,-515963,-559892,-559898,-530936,2,2,2,2
2025-09-03 13:26:22.100,-507624,-559678,-559750,-530465,2,2,2,2
2025-09-03 13:26:22.126,-499685,-559974,-576450,-530787,2,2,2,2
2025-09-03 13:26:22.154,-507544,-559629,-559747,-530717,2,2,2,2
2025-09-03 13:26:22.180,-515649,-559770,-576012,-530676,2,2,2,2
2025-09-03 13:26:22.208,-499323,-576202,-559647,-530690,2,2,2,2
2025-09-03 13:26:22.235,-499685,-559891,-576403,-530788,2,2,2,2
2025-09-03 13:26:22.262,-515842,-559647,-559769,-530749,2,2,2,2
2025-09-03 13:26:22.291,-499254,-559771,-576051,-530686,2,2,2,2
2025-09-03 13:26:22.316,-499686,-576265,-560011,-539008,2,2,2,2
2025-09-03 13:26:22.343,-499706,-559892,-576463,-530827,2,2,2,2
2025-09-03 13:26:22.370,-507889,-559902,-560102,-530897,2,2,2,2
2025-09-03 13:26:22.396,-499474,-559921,-559878,-530956,2,2,2,2
2025-09-03 13:26:22.423,-499425,-576051,-559846,-539040,2,2,2,2
2025-09-03 13:26:22.449,-499446,-559657,-559872,-530689,2,2,2,2
2025-09-03 13:26:22.476,-499424,-559648,-576203,-530926,2,2,2,2
2025-09-03 13:26:22.502,-507786,-559904,-560105,-531189,2,2,2,2
2025-09-03 13:26:22.529,-515718,-559721,-559855,-530936,2,2,2,2
2025-09-03 13:26:22.557,-499599,-559971,-560123,-530948,2,2,2,2
2025-09-03 13:26:22.584,-499479,-559860,-560080,-530840,2,2,2,2
2025-09-03 13:26:22.611,-499484,-559867,-576482,-530934,2,2,2,2
2025-09-03 13:26:22.638,-499594,-559917,-559898,-531059,2,2,2,2
2025-09-03 13:26:22.665,-516075,-560099,-560010,-531162,2,2,2,2
2025-09-03 13:26:22.692,-507750,-559907,-559883,-530997,2,2,2,2
2025-09-03 13:26:22.719,-499308,-576116,-559896,-530802,2,2,2,2
2025-09-03 13:26:22.747,-499568,-559996,-559920,-531064,2,2,2,2
2025-09-03 13:26:22.775,-507776,-559936,-559993,-531147,2,2,2,2
2025-09-03 13:26:22.803,-499616,-560020,-560098,-531184,2,2,2,2
2025-09-03 13:26:22.829,-499707,-560118,-560143,-530959,2,2,2,2
2025-09-03 13:26:22.856,-499705,-560107,-576526,-530971,2,2,2,2
2025-09-03 13:26:22.884,-499468,-559883,-576375,-531063,2,2,2,2
2025-09-03 13:26:22.912,-499477,-559898,-576653,-531074,2,2,2,2
2025-09-03 13:26:22.939,-499561,-559918,-560105,-531142,2,2,2,2
2025-09-03 13:26:22.966,-499695,-576521,-560237,-539512,2,2,2,2
2025-09-03 13:26:22.994,-499353,-559872,-559982,-531059,2,2,2,2
2025-09-03 13:26:23.021,-515861,-559979,-560272,-531158,2,2,2,2
2025-09-03 13:26:23.048,-499479,-576372,-560021,-539374,2,2,2,2
2025-09-03 13:26:23.075,-515810,-559875,-559969,-531005,2,2,2,2
2025-09-03 13:26:23.103,-499344,-576248,-559883,-531072,2,2,2,2
2025-09-03 13:26:23.131,-499447,-559636,-559983,-530921,2,2,2,2
2025-09-03 13:26:23.158,-499214,-559724,-560083,-530945,2,2,2,2
2025-09-03 13:26:23.185,-499219,-559673,-560029,-530994,2,2,2,2
2025-09-03 13:26:23.212,-499304,-559851,-559896,-530809,2,2,2,2
2025-09-03 13:26:23.240,-499350,-559716,-559934,-530848,2,2,2,2
2025-09-03 13:26:23.267,-507751,-560122,-560145,-531137,2,2,2,2
2025-09-03 13:26:23.294,-499341,-559976,-560087,-531197,2,2,2,2
2025-09-03 13:26:23.322,-499444,-559835,-560126,-531060,2,2,2,2
2025-09-03 13:26:23.351,-499347,-559983,-560103,-530960,2,2,2,2
2025-09-03 13:26:23.378,-499419,-559742,-576510,-531047,2,2,2,2
2025-09-03 13:26:23.406,-499434,-560026,-576572,-531057,2,2,2,2
2025-09-03 13:26:23.432,-515740,-560026,-560226,-531006,2,2,2,2
2025-09-03 13:26:23.460,-499338,-576138,-559894,-531049,2,2,2,2
2025-09-03 13:26:23.487,-499450,-559882,-576700,-531176,2,2,2,2
2025-09-03 13:26:23.514,-499221,-559895,-560111,-531192,2,2,2,2
2025-09-03 13:26:23.542,-515647,-559740,-559970,-530972,2,2,2,2
2025-09-03 13:26:23.571,-507514,-560073,-560249,-530991,2,2,2,2
2025-09-03 13:26:23.597,-499330,-576140,-560004,-539252,2,2,2,2
2025-09-03 13:26:23.624,-498968,-559636,-559904,-530714,2,2,2,2
2025-09-03 13:26:23.652,-499094,-559828,-560023,-530840,2,2,2,2
2025-09-03 13:26:23.679,-498976,-559663,-559986,-530706,2,2,2,2
2025-09-03 13:26:23.706,-498953,-559642,-576320,-530696,2,2,2,2
2025-09-03 13:26:23.734,-515728,-559775,-560029,-531138,2,2,2,2
2025-09-03 13:26:23.762,-499298,-576126,-560015,-530959,2,2,2,2
2025-09-03 13:26:23.789,-515480,-559872,-559876,-530895,2,2,2,2
2025-09-03 13:26:23.815,-499103,-576023,-559889,-530845,2,2,2,2
2025-09-03 13:26:23.843,-515586,-559741,-576376,-530949,2,2,2,2
2025-09-03 13:26:23.872,-499437,-559991,-576526,-531104,2,2,2,2
2025-09-03 13:26:23.898,-515466,-559720,-560123,-530896,2,2,2,2
2025-09-03 13:26:23.925,-499083,-559724,-560111,-530823,2,2,2,2
2025-09-03 13:26:23.953,-515482,-559754,-560124,-530923,2,2,2,2
2025-09-03 13:26:23.981,-499336,-576398,-560105,-539286,2,2,2,2
2025-09-03 13:26:24.009,-507510,-560076,-560285,-531154,2,2,2,2
2025-09-03 13:26:24.037,-515616,-559989,-560006,-531006,2,2,2,2
2025-09-03 13:26:24.064,-499446,-559892,-560183,-531051,2,2,2,2
2025-09-03 13:26:24.092,-515718,-560103,-560145,-531195,2,2,2,2
2025-09-03 13:26:24.118,-515809,-560121,-560230,-531220,2,2,2,2
2025-09-03 13:26:24.147,-499360,-576269,-560250,-539164,2,2,2,2
2025-09-03 13:26:24.175,-515595,-559990,-560110,-531160,2,2,2,2
2025-09-03 13:26:24.201,-499212,-560008,-576757,-531096,2,2,2,2
2025-09-03 13:26:24.227,-499206,-559996,-576747,-531099,2,2,2,2
2025-09-03 13:26:24.255,-507494,-560078,-560123,-531178,2,2,2,2
2025-09-03 13:26:24.283,-515613,-559999,-560127,-531170,2,2,2,2
2025-09-03 13:26:24.311,-515820,-559903,-560273,-531007,2,2,2,2
2025-09-03 13:26:24.338,-507510,-560104,-560138,-531200,2,2,2,2
2025-09-03 13:26:24.365,-515762,-560133,-576622,-531226,2,2,2,2
2025-09-03 13:26:24.392,-515694,-560114,-560160,-531201,2,2,2,2
2025-09-03 13:26:24.419,-515600,-560105,-560131,-531193,2,2,2,2
2025-09-03 13:26:24.446,-499457,-576737,-560364,-539622,2,2,2,2
2025-09-03 13:26:24.473,-515762,-560252,-576646,-531401,2,2,2,2
2025-09-03 13:26:24.500,-499245,-560146,-576575,-531314,2,2,2,2
2025-09-03 13:26:24.528,-515836,-560031,-560371,-531205,2,2,2,2
2025-09-03 13:26:24.555,-515633,-560135,-576530,-531309,2,2,2,2
2025-09-03 13:26:24.582,-515689,-560141,-560155,-531248,2,2,2,2
2025-09-03 13:26:24.610,-499202,-576457,-560124,-530963,2,2,2,2
2025-09-03 13:26:24.638,-507524,-560164,-560247,-531421,2,2,2,2
2025-09-03 13:26:24.666,-499428,-560268,-560342,-531442,2,2,2,2
2025-09-03 13:26:24.693,-499403,-559983,-576631,-531181,2,2,2,2
2025-09-03 13:26:24.721,-499445,-576395,-560272,-539394,2,2,2,2
2025-09-03 13:26:24.749,-499307,-576496,-560136,-531334,2,2,2,2
2025-09-03 13:26:24.775,-515646,-560112,-560380,-531263,2,2,2,2
2025-09-03 13:26:24.802,-499330,-576511,-560144,-531333,2,2,2,2
2025-09-03 13:26:24.830,-499348,-576258,-560225,-531092,2,2,2,2
2025-09-03 13:26:24.857,-499311,-576435,-560374,-539495,2,2,2,2
2025-09-03 13:26:24.882,-515648,-560117,-576522,-531066,2,2,2,2
2025-09-03 13:26:24.910,-499339,-559885,-560160,-531095,2,2,2,2
2025-09-03 13:26:24.937,-499219,-559999,-560340,-531206,2,2,2,2
2025-09-03 13:26:24.965,-499226,-560070,-560264,-531201,2,2,2,2
2025-09-03 13:26:24.993,-499206,-559992,-559929,-531101,2,2,2,2
2025-09-03 13:26:25.019,-499339,-560118,-560110,-530967,2,2,2,2
2025-09-03 13:26:25.047,-507522,-560104,-560026,-531194,2,2,2,2
2025-09-03 13:26:25.075,-499567,-576656,-560249,-539619,2,2,2,2
2025-09-03 13:26:25.103,-499179,-576267,-560121,-530950,2,2,2,2
2025-09-03 13:26:25.130,-515823,-559881,-560118,-530965,2,2,2,2
2025-09-03 13:26:25.157,-507537,-560120,-560101,-531146,2,2,2,2
2025-09-03 13:26:25.184,-499205,-576329,-559897,-531049,2,2,2,2
2025-09-03 13:26:25.211,-499182,-559627,-559878,-530719,2,2,2,2
2025-09-03 13:26:25.238,-499338,-560024,-560090,-531188,2,2,2,2
2025-09-03 13:26:25.264,-499197,-559861,-576266,-530974,2,2,2,2
2025-09-03 13:26:25.291,-499213,-559884,-559885,-531009,2,2,2,2
2025-09-03 13:26:25.318,-515461,-559738,-559998,-530906,2,2,2,2
2025-09-03 13:26:25.346,-499182,-559756,-576434,-530930,2,2,2,2
2025-09-03 13:26:25.372,-515687,-559869,-559893,-530979,2,2,2,2
2025-09-03 13:26:25.399,-499218,-559854,-560127,-530953,2,2,2,2
2025-09-03 13:26:25.426,-499153,-559723,-576379,-530817,2,2,2,2
2025-09-03 13:26:25.453,-499219,-576214,-560102,-530935,2,2,2,2
2025-09-03 13:26:25.482,-499058,-576006,-559872,-530716,2,2,2,2
2025-09-03 13:26:25.509,-515349,-559851,-559758,-530937,2,2,2,2
2025-09-03 13:26:25.537,-499432,-559979,-559906,-531067,2,2,2,2
2025-09-03 13:26:25.564,-499316,-560121,-560099,-531188,2,2,2,2
2025-09-03 13:26:25.590,-499216,-559774,-560083,-530848,2,2,2,2
2025-09-03 13:26:25.617,-499394,-559970,-576500,-530950,2,2,2,2
2025-09-03 13:26:25.644,-499321,-559890,-559881,-530960,2,2,2,2
2025-09-03 13:26:25.672,-499595,-576537,-560133,-539416,2,2,2,2
2025-09-03 13:26:25.698,-499185,-559745,-576322,-530810,2,2,2,2
2025-09-03 13:26:25.725,-499213,-560100,-576379,-531088,2,2,2,2
2025-09-03 13:26:25.753,-499202,-560028,-559919,-531065,2,2,2,2
2025-09-03 13:26:25.780,-515552,-559740,-576274,-530719,2,2,2,2
2025-09-03 13:26:25.809,-515724,-559988,-560117,-530954,2,2,2,2
2025-09-03 13:26:25.836,-499440,-560010,-576515,-531044,2,2,2,2
2025-09-03 13:26:25.862,-499229,-576503,-559984,-531102,2,2,2,2
2025-09-03 13:26:25.890,-499428,-560084,-560116,-531057,2,2,2,2
2025-09-03 13:26:25.916,-499396,-559895,-576394,-531184,2,2,2,2
2025-09-03 13:26:25.943,-499437,-560081,-560119,-531007,2,2,2,2
2025-09-03 13:26:25.970,-507667,-560130,-560240,-531085,2,2,2,2
2025-09-03 13:26:25.998,-499443,-576410,-560126,-530965,2,2,2,2
2025-09-03 13:26:26.026,-499499,-560155,-576570,-531087,2,2,2,2
2025-09-03 13:26:26.054,-499699,-576717,-560371,-531302,2,2,2,2
2025-09-03 13:26:26.081,-507654,-560372,-560366,-531315,2,2,2,2
2025-09-03 13:26:26.108,-515982,-560242,-560242,-531182,2,2,2,2
2025-09-03 13:26:26.135,-499615,-576707,-560240,-531183,2,2,2,2
2025-09-03 13:26:26.162,-499359,-560107,-559930,-530949,2,2,2,2
2025-09-03 13:26:26.188,-515938,-560158,-560362,-531259,2,2,2,2
2025-09-03 13:26:26.216,-499416,-560029,-576293,-531193,2,2,2,2
2025-09-03 13:26:26.242,-507652,-560157,-560016,-530991,2,2,2,2
2025-09-03 13:26:26.269,-499480,-576555,-560027,-531048,2,2,2,2
2025-09-03 13:26:26.297,-499712,-576526,-560268,-531219,2,2,2,2
2025-09-03 13:26:26.324,-499563,-560246,-560105,-531064,2,2,2,2
2025-09-03 13:26:26.351,-499478,-560242,-576406,-531052,2,2,2,2
2025-09-03 13:26:26.379,-499675,-560374,-576563,-531182,2,2,2,2
2025-09-03 13:26:26.406,-499697,-560147,-560239,-531210,2,2,2,2
2025-09-03 13:26:26.434,-499436,-560141,-559894,-530953,2,2,2,2
2025-09-03 13:26:26.461,-499359,-560132,-559882,-530955,2,2,2,2
2025-09-03 13:26:26.488,-507653,-560165,-559985,-530967,2,2,2,2
2025-09-03 13:26:26.514,-499358,-559873,-559892,-530921,2,2,2,2
2025-09-03 13:26:26.542,-507540,-560111,-559876,-531133,2,2,2,2
2025-09-03 13:26:26.570,-499301,-576392,-560103,-539243,2,2,2,2
2025-09-03 13:26:26.598,-499682,-560370,-560156,-531099,2,2,2,2
2025-09-03 13:26:26.626,-499253,-560024,-560114,-531070,2,2,2,2
2025-09-03 13:26:26.654,-515839,-560233,-559994,-530957,2,2,2,2
2025-09-03 13:26:26.681,-499556,-576648,-560022,-539253,2,2,2,2
2025-09-03 13:26:26.708,-515841,-560139,-560160,-531200,2,2,2,2
2025-09-03 13:26:26.735,-499707,-576519,-560154,-539393,2,2,2,2
2025-09-03 13:26:26.762,-499681,-576515,-560142,-539384,2,2,2,2
2025-09-03 13:26:26.790,-499608,-560384,-560138,-531443,2,2,2,2
2025-09-03 13:26:26.818,-499429,-576518,-559902,-539139,2,2,2,2
2025-09-03 13:26:26.844,-499236,-560010,-576463,-531084,2,2,2,2
2025-09-03 13:26:26.871,-499434,-560147,-559923,-530965,2,2,2,2
2025-09-03 13:26:26.897,-515825,-560238,-576397,-531052,2,2,2,2
2025-09-03 13:26:26.923,-499335,-576524,-559977,-530957,2,2,2,2
2025-09-03 13:26:26.950,-499356,-559992,-560073,-531060,2,2,2,2
2025-09-03 13:26:26.976,-499333,-560156,-559987,-531000,2,2,2,2
2025-09-03 13:26:27.002,-499359,-560003,-560089,-531068,2,2,2,2
2025-09-03 13:26:27.031,-499228,-576307,-560001,-539163,2,2,2,2
2025-09-03 13:26:27.059,-507499,-560178,-560018,-530993,2,2,2,2
2025-09-03 13:26:27.087,-499432,-576716,-560146,-539378,2,2,2,2
2025-09-03 13:26:27.114,-515856,-560493,-560258,-531233,2,2,2,2
2025-09-03 13:26:27.143,-499242,-560249,-576440,-531066,2,2,2,2
2025-09-03 13:26:27.171,-499455,-560143,-560071,-530963,2,2,2,2
2025-09-03 13:26:27.198,-507489,-560180,-560104,-531074,2,2,2,2
2025-09-03 13:26:27.225,-515639,-560243,-560100,-530998,2,2,2,2
2025-09-03 13:26:27.252,-515595,-559924,-560100,-530993,2,2,2,2
2025-09-03 13:26:27.280,-515814,-560159,-559996,-530960,2,2,2,2
2025-09-03 13:26:27.308,-499210,-576652,-560124,-539271,2,2,2,2
2025-09-03 13:26:27.335,-499448,-560237,-560113,-531075,2,2,2,2
2025-09-03 13:26:27.362,-499325,-560123,-559991,-530962,2,2,2,2
2025-09-03 13:26:27.390,-507523,-560378,-560250,-531252,2,2,2,2
2025-09-03 13:26:27.418,-515588,-560248,-560116,-531153,2,2,2,2
2025-09-03 13:26:27.446,-499212,-559985,-559875,-531104,2,2,2,2
2025-09-03 13:26:27.474,-507617,-560138,-560031,-531061,2,2,2,2
2025-09-03 13:26:27.502,-499331,-560106,-559929,-530961,2,2,2,2
2025-09-03 13:26:27.529,-499309,-560071,-559978,-531197,2,2,2,2
2025-09-03 13:26:27.555,-499251,-560002,-576322,-531184,2,2,2,2
2025-09-03 13:26:27.581,-499223,-559969,-576259,-531081,2,2,2,2
2025-09-03 13:26:27.608,-498948,-559970,-576255,-530809,2,2,2,2
2025-09-03 13:26:27.638,-499144,-560103,-560079,-530942,2,2,2,2
2025-09-03 13:26:27.665,-499214,-576373,-559970,-531170,2,2,2,2
2025-09-03 13:26:27.692,-507362,-560126,-560110,-531059,2,2,2,2
2025-09-03 13:26:27.721,-515720,-560106,-560020,-530962,2,2,2,2
2025-09-03 13:26:27.748,-515643,-560002,-559990,-531183,2,2,2,2
2025-09-03 13:26:27.775,-499219,-576316,-559895,-531100,2,2,2,2
2025-09-03 13:26:27.803,-499208,-559997,-559910,-531174,2,2,2,2
2025-09-03 13:26:27.830,-515575,-559897,-576271,-530843,2,2,2,2
2025-09-03 13:26:27.857,-499186,-559978,-559910,-530848,2,2,2,2
2025-09-03 13:26:27.885,-498976,-576135,-559767,-538899,2,2,2,2
2025-09-03 13:26:27.912,-498949,-559977,-576377,-530941,2,2,2,2
2025-09-03 13:26:27.940,-515599,-559977,-576386,-531198,2,2,2,2
2025-09-03 13:26:27.966,-515386,-560028,-576493,-531051,2,2,2,2
2025-09-03 13:26:27.994,-499153,-559877,-576356,-530843,2,2,2,2
2025-09-03 13:26:28.022,-499045,-560100,-559873,-531065,2,2,2,2
2025-09-03 13:26:28.050,-515460,-560120,-559887,-531145,2,2,2,2
2025-09-03 13:26:28.076,-515558,-559982,-560022,-530928,2,2,2,2
2025-09-03 13:26:28.102,-515708,-560128,-560157,-531142,2,2,2,2
2025-09-03 13:26:28.129,-499177,-559990,-560099,-530950,2,2,2,2
2025-09-03 13:26:28.156,-499227,-576719,-560141,-531323,2,2,2,2
2025-09-03 13:26:28.184,-515528,-559999,-576492,-531196,2,2,2,2
2025-09-03 13:26:28.211,-515578,-560012,-560132,-530972,2,2,2,2
2025-09-03 13:26:28.238,-499303,-560121,-560187,-531092,2,2,2,2
2025-09-03 13:26:28.265,-498966,-559864,-576370,-530834,2,2,2,2
2025-09-03 13:26:28.292,-498953,-560086,-559974,-531059,2,2,2,2
2025-09-03 13:26:28.320,-515364,-559861,-576380,-530835,2,2,2,2
2025-09-03 13:26:28.346,-507263,-559898,-560100,-530935,2,2,2,2
2025-09-03 13:26:28.374,-498945,-559765,-559909,-530792,2,2,2,2
2025-09-03 13:26:28.402,-499193,-560014,-559893,-531042,2,2,2,2
2025-09-03 13:26:28.430,-515569,-560012,-559892,-530973,2,2,2,2
2025-09-03 13:26:28.457,-515334,-559753,-559894,-530734,2,2,2,2
2025-09-03 13:26:28.485,-498966,-560028,-576334,-531068,2,2,2,2
2025-09-03 13:26:28.512,-498964,-560095,-559984,-531062,2,2,2,2
2025-09-03 13:26:28.539,-499008,-559873,-576450,-530847,2,2,2,2
2025-09-03 13:26:28.565,-499071,-576248,-560029,-530843,2,2,2,2
2025-09-03 13:26:28.593,-499187,-576374,-559974,-539164,2,2,2,2
2025-09-03 13:26:28.619,-498968,-559755,-559927,-530789,2,2,2,2
2025-09-03 13:26:28.646,-498921,-559726,-576311,-530714,2,2,2,2
2025-09-03 13:26:28.674,-515576,-559982,-559979,-530962,2,2,2,2
2025-09-03 13:26:28.701,-498972,-559746,-576319,-530804,2,2,2,2
2025-09-03 13:26:28.728,-499099,-576264,-559881,-530935,2,2,2,2
2025-09-03 13:26:28.756,-499194,-559902,-576314,-530952,2,2,2,2
2025-09-03 13:26:28.782,-515471,-560100,-560116,-531170,2,2,2,2
2025-09-03 13:26:28.810,-499047,-576371,-559996,-539240,2,2,2,2
2025-09-03 13:26:28.837,-515383,-559994,-576401,-531060,2,2,2,2
2025-09-03 13:26:28.864,-515348,-559975,-559995,-530962,2,2,2,2
2025-09-03 13:26:28.891,-499256,-560002,-576734,-531055,2,2,2,2
2025-09-03 13:26:28.919,-515567,-559878,-559973,-530921,2,2,2,2
2025-09-03 13:26:28.946,-515508,-559859,-559893,-530894,2,2,2,2
2025-09-03 13:26:28.974,-515612,-559994,-576643,-530950,2,2,2,2
2025-09-03 13:26:29.001,-515442,-560010,-560097,-530974,2,2,2,2
2025-09-03 13:26:29.027,-515379,-559765,-576416,-530712,2,2,2,2
2025-09-03 13:26:29.055,-499172,-559895,-560156,-531092,2,2,2,2
2025-09-03 13:26:29.081,-498953,-559753,-576469,-530696,2,2,2,2
2025-09-03 13:26:29.107,-515272,-559717,-576365,-530900,2,2,2,2
2025-09-03 13:26:29.136,-498882,-559851,-576237,-530716,2,2,2,2
2025-09-03 13:26:29.163,-498983,-559776,-576493,-530717,2,2,2,2
2025-09-03 13:26:29.191,-515560,-559999,-559978,-530906,2,2,2,2
2025-09-03 13:26:29.219,-515391,-559870,-576487,-530707,2,2,2,2
2025-09-03 13:26:29.247,-498933,-576197,-560005,-539114,2,2,2,2
2025-09-03 13:26:29.274,-507368,-560090,-559988,-530900,2,2,2,2
2025-09-03 13:26:29.301,-498908,-559776,-576293,-530831,2,2,2,2
2025-09-03 13:26:29.327,-498995,-559998,-559888,-530791,2,2,2,2
2025-09-03 13:26:29.354,-498969,-559903,-576502,-530707,2,2,2,2
2025-09-03 13:26:29.383,-498960,-576311,-560101,-539153,2,2,2,2
2025-09-03 13:26:29.412,-507385,-559874,-560012,-530933,2,2,2,2
2025-09-03 13:26:29.439,-507120,-559869,-559999,-530920,2,2,2,2
2025-09-03 13:26:29.468,-499077,-560103,-559895,-530842,2,2,2,2
2025-09-03 13:26:29.495,-515408,-560020,-559889,-530750,2,2,2,2
2025-09-03 13:26:29.522,-499082,-576508,-559900,-530832,2,2,2,2
2025-09-03 13:26:29.549,-499057,-576495,-560122,-530816,2,2,2,2
2025-09-03 13:26:29.576,-499187,-559983,-559926,-530949,2,2,2,2
2025-09-03 13:26:29.604,-498918,-559975,-559914,-530936,2,2,2,2
2025-09-03 13:26:29.631,-498926,-559670,-559753,-530686,2,2,2,2
2025-09-03 13:26:29.659,-515169,-559772,-559857,-530728,2,2,2,2
2025-09-03 13:26:29.686,-515323,-559735,-559765,-530712,2,2,2,2
2025-09-03 13:26:29.713,-498916,-559895,-576370,-530934,2,2,2,2
2025-09-03 13:26:29.742,-498712,-559831,-559855,-530811,2,2,2,2
2025-09-03 13:26:29.770,-515280,-559876,-576279,-530914,2,2,2,2
2025-09-03 13:26:29.797,-498694,-576126,-559765,-530801,2,2,2,2
2025-09-03 13:26:29.825,-515221,-559629,-559717,-530693,2,2,2,2
2025-09-03 13:26:29.852,-498703,-559736,-576244,-530813,2,2,2,2
2025-09-03 13:26:29.878,-498720,-559743,-576205,-530823,2,2,2,2
2025-09-03 13:26:29.906,-499054,-576450,-560111,-530829,2,2,2,2
2025-09-03 13:26:29.935,-515082,-559644,-559760,-530732,2,2,2,2
2025-09-03 13:26:29.963,-498689,-559717,-559820,-530795,2,2,2,2
2025-09-03 13:26:29.991,-498705,-559646,-576131,-530802,2,2,2,2
2025-09-03 13:26:30.019,-498751,-559769,-576254,-530927,2,2,2,2
2025-09-03 13:26:30.046,-499168,-560115,-576277,-530954,2,2,2,2
2025-09-03 13:26:30.074,-498834,-576192,-559884,-539129,2,2,2,2
2025-09-03 13:26:30.103,-507037,-559856,-559895,-530699,2,2,2,2
2025-09-03 13:26:30.130,-498811,-559763,-559853,-530921,2,2,2,2
2025-09-03 13:26:30.158,-498703,-559644,-576118,-530794,2,2,2,2
2025-09-03 13:26:30.186,-498714,-576059,-559743,-530821,2,2,2,2
2025-09-03 13:26:30.214,-498832,-576198,-559841,-530848,2,2,2,2
2025-09-03 13:26:30.242,-515079,-559869,-559722,-530727,2,2,2,2
2025-09-03 13:26:30.270,-498925,-559841,-559639,-530713,2,2,2,2
2025-09-03 13:26:30.298,-515055,-559517,-559640,-530463,2,2,2,2
2025-09-03 13:26:30.325,-498648,-559475,-575996,-530676,2,2,2,2
2025-09-03 13:26:30.351,-515090,-559773,-576112,-530786,2,2,2,2
2025-09-03 13:26:30.377,-515251,-559727,-559870,-530668,2,2,2,2
2025-09-03 13:26:30.404,-498794,-559643,-559843,-530574,2,2,2,2
2025-09-03 13:26:30.431,-515079,-559630,-559762,-530628,2,2,2,2
2025-09-03 13:26:30.460,-498700,-559632,-559813,-530572,2,2,2,2
2025-09-03 13:26:30.489,-515077,-559624,-559723,-530888,2,2,2,2
2025-09-03 13:26:30.517,-498712,-559724,-576128,-530583,2,2,2,2
2025-09-03 13:26:30.546,-498801,-559677,-559759,-530679,2,2,2,2
2025-09-03 13:26:30.574,-498705,-559633,-559659,-530797,2,2,2,2
2025-09-03 13:26:30.602,-498958,-559882,-576322,-530804,2,2,2,2
2025-09-03 13:26:30.630,-498812,-576062,-559759,-530842,2,2,2,2
2025-09-03 13:26:30.659,-498994,-559981,-576449,-530815,2,2,2,2
2025-09-03 13:26:30.687,-498682,-559585,-559607,-530685,2,2,2,2
2025-09-03 13:26:30.714,-498701,-576254,-559633,-538895,2,2,2,2
2025-09-03 13:26:30.742,-498575,-559422,-559519,-530576,2,2,2,2
2025-09-03 13:26:30.769,-498808,-559631,-559673,-530712,2,2,2,2
2025-09-03 13:26:30.796,-515232,-559669,-559765,-530634,2,2,2,2
2025-09-03 13:26:30.823,-498936,-576135,-559856,-538771,2,2,2,2
2025-09-03 13:26:30.851,-498918,-559716,-559827,-530810,2,2,2,2
2025-09-03 13:26:30.878,-498821,-559868,-559651,-530786,2,2,2,2
2025-09-03 13:26:30.905,-498837,-576248,-559724,-530712,2,2,2,2
2025-09-03 13:26:30.932,-515134,-559774,-576016,-530699,2,2,2,2
2025-09-03 13:26:30.960,-499162,-559854,-576305,-530720,2,2,2,2
2025-09-03 13:26:30.988,-498710,-559623,-559757,-530554,2,2,2,2
2025-09-03 13:26:31.015,-507116,-559838,-559637,-530694,2,2,2,2
2025-09-03 13:26:31.042,-515339,-559856,-559734,-530705,2,2,2,2
2025-09-03 13:26:31.069,-498916,-576075,-559619,-538778,2,2,2,2
2025-09-03 13:26:31.096,-498928,-559476,-575998,-530664,2,2,2,2
2025-09-03 13:26:31.123,-498917,-576030,-559842,-530560,2,2,2,2
2025-09-03 13:26:31.149,-515192,-559515,-559746,-530464,2,2,2,2
2025-09-03 13:26:31.178,-507026,-559601,-559761,-530630,2,2,2,2
2025-09-03 13:26:31.205,-498943,-559371,-559587,-530584,2,2,2,2
2025-09-03 13:26:31.231,-498716,-559462,-559370,-530427,2,2,2,2
2025-09-03 13:26:31.258,-515178,-559387,-559605,-530419,2,2,2,2
2025-09-03 13:26:31.287,-515152,-559378,-559599,-530684,2,2,2,2
2025-09-03 13:26:31.314,-498745,-559386,-575995,-530433,2,2,2,2
2025-09-03 13:26:31.341,-498935,-575805,-559725,-530532,2,2,2,2
2025-09-03 13:26:31.367,-515202,-559345,-559603,-530416,2,2,2,2
2025-09-03 13:26:31.395,-498705,-559485,-575803,-530553,2,2,2,2
2025-09-03 13:26:31.423,-499137,-559591,-576183,-530659,2,2,2,2
2025-09-03 13:26:31.451,-515298,-559363,-559611,-530441,2,2,2,2
2025-09-03 13:26:31.479,-498795,-575873,-559474,-538755,2,2,2,2
2025-09-03 13:26:31.505,-515329,-559376,-559615,-530671,2,2,2,2
2025-09-03 13:26:31.532,-498898,-559497,-575926,-530568,2,2,2,2
2025-09-03 13:26:31.559,-499047,-575772,-559717,-530453,2,2,2,2
2025-09-03 13:26:31.586,-498959,-559364,-559625,-530671,2,2,2,2
2025-09-03 13:26:31.612,-498817,-575861,-559482,-538653,2,2,2,2
2025-09-03 13:26:31.638,-515325,-559333,-559610,-530374,2,2,2,2
2025-09-03 13:26:31.665,-498825,-575857,-559496,-538651,2,2,2,2
2025-09-03 13:26:31.693,-515121,-559352,-559379,-530406,2,2,2,2
2025-09-03 13:26:31.720,-515173,-559106,-559464,-530413,2,2,2,2
2025-09-03 13:26:31.747,-498846,-559164,-559593,-530244,2,2,2,2
2025-09-03 13:26:31.775,-498949,-559502,-559611,-530553,2,2,2,2
2025-09-03 13:26:31.803,-498725,-559337,-575798,-530327,2,2,2,2
2025-09-03 13:26:31.831,-499053,-559586,-559643,-530580,2,2,2,2
2025-09-03 13:26:31.857,-498801,-559262,-559374,-530317,2,2,2,2
2025-09-03 13:26:31.886,-515211,-559351,-559461,-530417,2,2,2,2
2025-09-03 13:26:31.912,-515318,-559123,-575875,-530197,2,2,2,2
2025-09-03 13:26:31.939,-498807,-559253,-559371,-530322,2,2,2,2
2025-09-03 13:26:31.965,-507004,-559329,-559388,-530384,2,2,2,2
2025-09-03 13:26:31.992,-498919,-559347,-559484,-530425,2,2,2,2
2025-09-03 13:26:32.019,-498921,-575503,-559488,-538379,2,2,2,2
2025-09-03 13:26:32.046,-498745,-559242,-575749,-530303,2,2,2,2
2025-09-03 13:26:32.073,-515256,-559357,-559476,-530410,2,2,2,2
2025-09-03 13:26:32.100,-498805,-559242,-559612,-530308,2,2,2,2
2025-09-03 13:26:32.126,-515202,-559243,-559354,-530238,2,2,2,2
2025-09-03 13:26:32.153,-498913,-575719,-559377,-538505,2,2,2,2
2025-09-03 13:26:32.180,-498584,-575385,-559136,-538260,2,2,2,2
2025-09-03 13:26:32.208,-515190,-559209,-559249,-530208,2,2,2,2
2025-09-03 13:26:32.236,-515307,-559258,-559378,-530382,2,2,2,2
2025-09-03 13:26:32.264,-506898,-559068,-559209,-530108,2,2,2,2
2025-09-03 13:26:32.292,-498796,-559084,-559243,-530175,2,2,2,2
2025-09-03 13:26:32.320,-498927,-575587,-559351,-538500,2,2,2,2
2025-09-03 13:26:32.348,-498838,-559099,-559326,-530284,2,2,2,2
2025-09-03 13:26:32.376,-498932,-559130,-575731,-530316,2,2,2,2
2025-09-03 13:26:32.404,-515078,-558959,-559352,-530136,2,2,2,2
2025-09-03 13:26:32.431,-515076,-559207,-575744,-530311,2,2,2,2
2025-09-03 13:26:32.459,-507031,-559343,-559492,-530230,2,2,2,2
2025-09-03 13:26:32.486,-507130,-559113,-559585,-530221,2,2,2,2
2025-09-03 13:26:32.512,-498929,-559111,-559585,-530290,2,2,2,2
2025-09-03 13:26:32.539,-498690,-559122,-559333,-530291,2,2,2,2
2025-09-03 13:26:32.567,-515120,-559224,-575765,-530404,2,2,2,2
2025-09-03 13:26:32.595,-499178,-559346,-575870,-530450,2,2,2,2
2025-09-03 13:26:32.622,-499087,-559254,-559410,-530428,2,2,2,2
2025-09-03 13:26:32.649,-515348,-559132,-559595,-530234,2,2,2,2
2025-09-03 13:26:32.676,-498694,-559121,-559328,-530275,2,2,2,2
2025-09-03 13:26:32.703,-515301,-559106,-559498,-530197,2,2,2,2
2025-09-03 13:26:32.731,-515207,-559330,-559476,-530422,2,2,2,2
2025-09-03 13:26:32.758,-515388,-559254,-575776,-530403,2,2,2,2
2025-09-03 13:26:32.785,-515310,-559105,-559486,-530432,2,2,2,2
2025-09-03 13:26:32.812,-498798,-575625,-559359,-538497,2,2,2,2
2025-09-03 13:26:32.838,-498972,-559168,-559593,-530247,2,2,2,2
2025-09-03 13:26:32.865,-506982,-559168,-559330,-530210,2,2,2,2
2025-09-03 13:26:32.892,-507128,-559146,-559497,-530426,2,2,2,2
2025-09-03 13:26:32.921,-498817,-559089,-559106,-530052,2,2,2,2
2025-09-03 13:26:32.946,-498944,-575608,-559477,-538608,2,2,2,2
2025-09-03 13:26:32.973,-498961,-575622,-559512,-530431,2,2,2,2
2025-09-03 13:26:33.001,-506977,-559332,-559252,-530240,2,2,2,2
2025-09-03 13:26:33.027,-498955,-559483,-575813,-530332,2,2,2,2
2025-09-03 13:26:33.056,-515339,-559244,-575848,-530420,2,2,2,2
2025-09-03 13:26:33.083,-515576,-559481,-559386,-530401,2,2,2,2
2025-09-03 13:26:33.109,-498987,-559329,-575873,-530188,2,2,2,2
2025-09-03 13:26:33.138,-498942,-575606,-559366,-530403,2,2,2,2
2025-09-03 13:26:33.167,-498956,-559207,-559358,-530325,2,2,2,2
2025-09-03 13:26:33.194,-498792,-575615,-559204,-538356,2,2,2,2
2025-09-03 13:26:33.222,-515344,-559127,-575761,-530323,2,2,2,2
2025-09-03 13:26:33.251,-499076,-559239,-559404,-530419,2,2,2,2
2025-09-03 13:26:33.279,-499006,-559487,-575782,-530419,2,2,2,2
2025-09-03 13:26:33.308,-499186,-575733,-559511,-538481,2,2,2,2
2025-09-03 13:26:33.337,-499181,-559348,-559577,-530289,2,2,2,2
2025-09-03 13:26:33.365,-498952,-559128,-575696,-530319,2,2,2,2
2025-09-03 13:26:33.392,-499101,-559333,-559478,-530248,2,2,2,2
2025-09-03 13:26:33.419,-498997,-559209,-575744,-530418,2,2,2,2
2025-09-03 13:26:33.446,-498963,-575746,-559594,-530336,2,2,2,2
2025-09-03 13:26:33.472,-515662,-559469,-576014,-530441,2,2,2,2
2025-09-03 13:26:33.499,-499097,-575873,-559469,-538736,2,2,2,2
2025-09-03 13:26:33.527,-499052,-559380,-559362,-530439,2,2,2,2
2025-09-03 13:26:33.555,-499232,-559375,-559595,-530669,2,2,2,2
2025-09-03 13:26:33.583,-499061,-559382,-559369,-530439,2,2,2,2
2025-09-03 13:26:33.610,-499001,-559389,-575755,-530434,2,2,2,2
2025-09-03 13:26:33.638,-515463,-559215,-559383,-530197,2,2,2,2
2025-09-03 13:26:33.665,-499045,-559120,-559369,-530182,2,2,2,2
2025-09-03 13:26:33.692,-499102,-559306,-559478,-530250,2,2,2,2
2025-09-03 13:26:33.720,-498942,-575687,-559256,-538519,2,2,2,2
2025-09-03 13:26:33.747,-499082,-559205,-559385,-530196,2,2,2,2
2025-09-03 13:26:33.773,-498975,-575731,-559337,-538610,2,2,2,2
2025-09-03 13:26:33.801,-499045,-559117,-559364,-530430,2,2,2,2
2025-09-03 13:26:33.829,-499087,-559462,-559400,-530532,2,2,2,2
2025-09-03 13:26:33.855,-498962,-559336,-559587,-530409,2,2,2,2
2025-09-03 13:26:33.883,-515460,-559217,-559390,-530216,2,2,2,2
2025-09-03 13:26:33.909,-499172,-575616,-559480,-530317,2,2,2,2
2025-09-03 13:26:33.936,-499004,-559474,-559402,-530539,2,2,2,2
2025-09-03 13:26:33.963,-499176,-559517,-575948,-530578,2,2,2,2
2025-09-03 13:26:33.990,-499212,-575995,-559624,-538639,2,2,2,2
2025-09-03 13:26:34.017,-499104,-559559,-559493,-530588,2,2,2,2
2025-09-03 13:26:34.045,-499049,-575759,-559373,-530540,2,2,2,2
2025-09-03 13:26:34.072,-515477,-559241,-559491,-530396,2,2,2,2
2025-09-03 13:26:34.101,-499253,-559392,-576030,-530549,2,2,2,2
2025-09-03 13:26:34.128,-498927,-575705,-559263,-530422,2,2,2,2
2025-09-03 13:26:34.154,-498953,-559349,-575985,-530452,2,2,2,2
2025-09-03 13:26:34.182,-515277,-559214,-575606,-530315,2,2,2,2
2025-09-03 13:26:34.209,-499086,-559161,-559497,-530323,2,2,2,2
2025-09-03 13:26:34.237,-499101,-575693,-559501,-530320,2,2,2,2
2025-09-03 13:26:34.264,-499005,-559205,-575823,-530299,2,2,2,2
2025-09-03 13:26:34.291,-499080,-559166,-559490,-530316,2,2,2,2
2025-09-03 13:26:34.320,-499180,-559501,-559583,-530590,2,2,2,2
2025-09-03 13:26:34.348,-499141,-559468,-575796,-530540,2,2,2,2
2025-09-03 13:26:34.375,-498987,-559384,-575855,-530456,2,2,2,2
2025-09-03 13:26:34.403,-515593,-559588,-576016,-530673,2,2,2,2
2025-09-03 13:26:34.430,-499041,-575739,-559464,-530417,2,2,2,2
2025-09-03 13:26:34.457,-498995,-559381,-575823,-530424,2,2,2,2
2025-09-03 13:26:34.484,-507281,-559412,-559499,-530465,2,2,2,2
2025-09-03 13:26:34.513,-498967,-559343,-559612,-530361,2,2,2,2
2025-09-03 13:26:34.539,-499178,-559231,-559599,-530303,2,2,2,2
2025-09-03 13:26:34.566,-498982,-559107,-575861,-530432,2,2,2,2
2025-09-03 13:26:34.592,-498963,-575743,-559458,-530401,2,2,2,2
2025-09-03 13:26:34.619,-499045,-575744,-559470,-538617,2,2,2,2
2025-09-03 13:26:34.647,-499051,-575746,-559464,-530415,2,2,2,2
2025-09-03 13:26:34.675,-515341,-559250,-575997,-530320,2,2,2,2
2025-09-03 13:26:34.701,-498959,-559260,-575998,-530326,2,2,2,2
2025-09-03 13:26:34.729,-499082,-559361,-559469,-530437,2,2,2,2
2025-09-03 13:26:34.756,-498993,-559353,-559395,-530423,2,2,2,2
2025-09-03 13:26:34.784,-499163,-559117,-575937,-530203,2,2,2,2
2025-09-03 13:26:34.811,-499184,-559132,-559562,-530273,2,2,2,2
2025-09-03 13:26:34.839,-507618,-559373,-559726,-530459,2,2,2,2
2025-09-03 13:26:34.867,-499088,-559353,-559376,-530441,2,2,2,2
2025-09-03 13:26:34.895,-499423,-559613,-576055,-530457,2,2,2,2
2025-09-03 13:26:34.922,-499072,-575672,-559609,-538619,2,2,2,2
2025-09-03 13:26:34.950,-499070,-559233,-559596,-530413,2,2,2,2
2025-09-03 13:26:34.977,-499230,-559473,-559568,-530575,2,2,2,2
2025-09-03 13:26:35.005,-515571,-559107,-559383,-530208,2,2,2,2
2025-09-03 13:26:35.032,-515227,-559093,-559114,-530202,2,2,2,2
2025-09-03 13:26:35.058,-515343,-559356,-559387,-530223,2,2,2,2
2025-09-03 13:26:35.086,-499102,-575639,-559514,-538651,2,2,2,2
2025-09-03 13:26:35.113,-499045,-575519,-559389,-530334,2,2,2,2
2025-09-03 13:26:35.140,-499179,-559335,-575885,-530536,2,2,2,2
2025-09-03 13:26:35.167,-515460,-559217,-559375,-530434,2,2,2,2
2025-09-03 13:26:35.194,-499205,-559354,-559463,-530558,2,2,2,2
2025-09-03 13:26:35.221,-507396,-559355,-559385,-530496,2,2,2,2
2025-09-03 13:26:35.248,-515575,-559349,-559375,-530479,2,2,2,2
2025-09-03 13:26:35.276,-499324,-575874,-559489,-538862,2,2,2,2
2025-09-03 13:26:35.303,-499342,-575975,-559504,-530450,2,2,2,2
2025-09-03 13:26:35.330,-499343,-559583,-559479,-530699,2,2,2,2
2025-09-03 13:26:35.357,-507530,-559583,-559457,-530684,2,2,2,2
2025-09-03 13:26:35.385,-515346,-559206,-575644,-530310,2,2,2,2
2025-09-03 13:26:35.412,-507549,-559598,-559379,-530458,2,2,2,2
2025-09-03 13:26:35.439,-499181,-559375,-559129,-530511,2,2,2,2
2025-09-03 13:26:35.466,-515535,-559355,-559108,-530220,2,2,2,2
2025-09-03 13:26:35.494,-499196,-575502,-559117,-530319,2,2,2,2
2025-09-03 13:26:35.522,-499211,-559357,-559354,-530564,2,2,2,2
2025-09-03 13:26:35.549,-499219,-559361,-559358,-530586,2,2,2,2
2025-09-03 13:26:35.577,-499431,-559500,-575537,-530540,2,2,2,2
2025-09-03 13:26:35.604,-507423,-559370,-559348,-530684,2,2,2,2
2025-09-03 13:26:35.631,-515431,-559131,-559073,-530432,2,2,2,2
2025-09-03 13:26:35.659,-515354,-559358,-558985,-530428,2,2,2,2
2025-09-03 13:26:35.686,-499153,-559208,-575434,-530541,2,2,2,2
2025-09-03 13:26:35.714,-499341,-559461,-559322,-530533,2,2,2,2
2025-09-03 13:26:35.741,-515474,-559224,-558998,-530491,2,2,2,2
2025-09-03 13:26:35.768,-499179,-575682,-558999,-530567,2,2,2,2
2025-09-03 13:26:35.797,-499101,-559211,-558886,-530532,2,2,2,2
2025-09-03 13:26:35.824,-515567,-559227,-575361,-530305,2,2,2,2
2025-09-03 13:26:35.851,-499063,-575497,-558824,-530183,2,2,2,2
2025-09-03 13:26:35.879,-499043,-559353,-559045,-530401,2,2,2,2
2025-09-03 13:26:35.906,-499170,-559227,-558844,-530277,2,2,2,2
2025-09-03 13:26:35.934,-515350,-559093,-575091,-530405,2,2,2,2
2025-09-03 13:26:35.961,-498969,-559351,-575329,-530333,2,2,2,2
2025-09-03 13:26:35.988,-499339,-559485,-559052,-530448,2,2,2,2
2025-09-03 13:26:36.015,-499442,-559600,-559077,-530540,2,2,2,2
2025-09-03 13:26:36.043,-499166,-559340,-575367,-530538,2,2,2,2
2025-09-03 13:26:36.070,-507152,-559124,-558836,-530364,2,2,2,2
2025-09-03 13:26:36.096,-515520,-559262,-558959,-530457,2,2,2,2
2025-09-03 13:26:36.123,-515614,-559471,-559006,-530657,2,2,2,2
2025-09-03 13:26:36.150,-499456,-575766,-558960,-538748,2,2,2,2
2025-09-03 13:26:36.177,-499500,-559742,-575622,-530843,2,2,2,2
2025-09-03 13:26:36.205,-499349,-559604,-559073,-530710,2,2,2,2
2025-09-03 13:26:36.233,-499226,-575824,-558869,-538757,2,2,2,2
2025-09-03 13:26:36.261,-499208,-559462,-559090,-530554,2,2,2,2
2025-09-03 13:26:36.288,-499255,-559509,-558883,-530668,2,2,2,2
2025-09-03 13:26:36.315,-515591,-559467,-559074,-530486,2,2,2,2
2025-09-03 13:26:36.343,-499210,-559468,-575420,-530545,2,2,2,2
2025-09-03 13:26:36.371,-515821,-559364,-558974,-530446,2,2,2,2
2025-09-03 13:26:36.399,-507539,-559603,-558876,-530434,2,2,2,2
2025-09-03 13:26:36.430,-499216,-575777,-558742,-530554,2,2,2,2
2025-09-03 13:26:36.454,-515598,-559383,-558718,-530477,2,2,2,2
2025-09-03 13:26:36.480,-499182,-559356,-574994,-530446,2,2,2,2
2025-09-03 13:26:36.508,-499169,-559345,-558832,-530431,2,2,2,2
2025-09-03 13:26:36.536,-499163,-559348,-574927,-530183,2,2,2,2
2025-09-03 13:26:36.563,-499053,-575607,-558701,-530319,2,2,2,2
2025-09-03 13:26:36.590,-515434,-559234,-558701,-530391,2,2,2,2
2025-09-03 13:26:36.617,-515607,-559477,-575002,-530559,2,2,2,2
2025-09-03 13:26:36.645,-515560,-559353,-558464,-530431,2,2,2,2
2025-09-03 13:26:36.673,-498977,-559202,-574924,-530285,2,2,2,2
2025-09-03 13:26:36.700,-507420,-559401,-558826,-530493,2,2,2,2
2025-09-03 13:26:36.728,-515514,-559259,-574995,-530412,2,2,2,2
2025-09-03 13:26:36.756,-499319,-575802,-558826,-530568,2,2,2,2
2025-09-03 13:26:36.785,-499073,-575622,-558590,-530318,2,2,2,2
2025-09-03 13:26:36.811,-507283,-559314,-558576,-530385,2,2,2,2
2025-09-03 13:26:36.838,-499228,-559380,-558651,-530453,2,2,2,2
2025-09-03 13:26:36.865,-515566,-559329,-558592,-530412,2,2,2,2
2025-09-03 13:26:36.892,-499049,-559125,-558373,-530206,2,2,2,2
2025-09-03 13:26:36.919,-499309,-575857,-558715,-538737,2,2,2,2
2025-09-03 13:26:36.946,-499092,-575690,-558475,-530317,2,2,2,2
2025-09-03 13:26:36.974,-515691,-559389,-558597,-530448,2,2,2,2
2025-09-03 13:26:37.002,-507393,-559356,-558493,-530417,2,2,2,2
2025-09-03 13:26:37.030,-499220,-559382,-558572,-530430,2,2,2,2
2025-09-03 13:26:37.057,-507150,-559128,-558585,-530191,2,2,2,2
2025-09-03 13:26:37.084,-499199,-559355,-558569,-530381,2,2,2,2
2025-09-03 13:26:37.109,-499354,-575957,-558724,-530559,2,2,2,2
2025-09-03 13:26:37.136,-499151,-559229,-558378,-530289,2,2,2,2
2025-09-03 13:26:37.164,-507377,-559333,-558489,-530394,2,2,2,2
2025-09-03 13:26:37.192,-499007,-559206,-574742,-530206,2,2,2,2
2025-09-03 13:26:37.219,-499186,-559261,-574854,-530325,2,2,2,2
2025-09-03 13:26:37.246,-499006,-559208,-574726,-530207,2,2,2,2
2025-09-03 13:26:37.274,-498941,-575379,-558209,-538258,2,2,2,2
2025-09-03 13:26:37.301,-499144,-559208,-558356,-530277,2,2,2,2
2025-09-03 13:26:37.326,-515583,-559338,-558489,-530422,2,2,2,2
2025-09-03 13:26:37.354,-499203,-575724,-558485,-530415,2,2,2,2
2025-09-03 13:26:37.381,-498964,-575495,-558563,-538385,2,2,2,2
2025-09-03 13:26:37.408,-499168,-559236,-574796,-530310,2,2,2,2
2025-09-03 13:26:37.435,-498963,-559093,-574691,-530196,2,2,2,2
2025-09-03 13:26:37.462,-498960,-559345,-574861,-530185,2,2,2,2
2025-09-03 13:26:37.490,-515701,-559377,-558489,-530464,2,2,2,2
2025-09-03 13:26:37.517,-498956,-559111,-558382,-530428,2,2,2,2
2025-09-03 13:26:37.544,-515527,-559263,-574970,-530289,2,2,2,2
2025-09-03 13:26:37.573,-499059,-575619,-558221,-538390,2,2,2,2
2025-09-03 13:26:37.600,-507279,-559331,-558574,-530224,2,2,2,2
2025-09-03 13:26:37.629,-507276,-559318,-558484,-530230,2,2,2,2
2025-09-03 13:26:37.657,-499097,-559348,-558569,-530281,2,2,2,2
2025-09-03 13:26:37.684,-515532,-559348,-558487,-530227,2,2,2,2
2025-09-03 13:26:37.711,-507140,-559139,-558324,-530387,2,2,2,2
2025-09-03 13:26:37.739,-499194,-559464,-574953,-530311,2,2,2,2
2025-09-03 13:26:37.766,-499425,-559373,-574776,-530550,2,2,2,2
2025-09-03 13:26:37.793,-499324,-575947,-558357,-530456,2,2,2,2
2025-09-03 13:26:37.819,-499261,-559600,-574973,-530457,2,2,2,2
2025-09-03 13:26:37.847,-499068,-559346,-558333,-530190,2,2,2,2
2025-09-03 13:26:37.875,-499228,-575958,-558472,-530416,2,2,2,2
2025-09-03 13:26:37.902,-499144,-559368,-558321,-530201,2,2,2,2
2025-09-03 13:26:37.929,-499004,-559363,-558319,-530188,2,2,2,2
2025-09-03 13:26:37.957,-515719,-559373,-558344,-530439,2,2,2,2
2025-09-03 13:26:37.984,-515833,-559495,-574838,-530490,2,2,2,2
2025-09-03 13:26:38.012,-499320,-559603,-558340,-530430,2,2,2,2
2025-09-03 13:26:38.039,-507402,-559584,-558562,-530378,2,2,2,2
2025-09-03 13:26:38.066,-515696,-559371,-558359,-530426,2,2,2,2
2025-09-03 13:26:38.093,-499407,-559732,-575114,-530532,2,2,2,2
2025-09-03 13:26:38.120,-499395,-559720,-575106,-530461,2,2,2,2
2025-09-03 13:26:38.149,-499445,-559580,-558604,-530615,2,2,2,2
2025-09-03 13:26:38.176,-499418,-559519,-574986,-530571,2,2,2,2
2025-09-03 13:26:38.203,-499420,-559518,-575007,-530579,2,2,2,2
2025-09-03 13:26:38.230,-499245,-559469,-574969,-530529,2,2,2,2
2025-09-03 13:26:38.257,-499210,-559717,-575230,-530447,2,2,2,2
2025-09-03 13:26:38.284,-499434,-559638,-575225,-530436,2,2,2,2
2025-09-03 13:26:38.312,-499397,-559622,-575176,-530661,2,2,2,2
2025-09-03 13:26:38.339,-499062,-559375,-558579,-530406,2,2,2,2
2025-09-03 13:26:38.366,-515568,-559506,-575098,-530532,2,2,2,2
2025-09-03 13:26:38.393,-499226,-559629,-575220,-530579,2,2,2,2
2025-09-03 13:26:38.421,-499456,-576251,-558828,-530563,2,2,2,2
2025-09-03 13:26:38.447,-515613,-559726,-574997,-530658,2,2,2,2
2025-09-03 13:26:38.474,-515711,-559849,-575126,-530460,2,2,2,2
2025-09-03 13:26:38.500,-515562,-559714,-558697,-530644,2,2,2,2
2025-09-03 13:26:38.529,-507519,-559620,-558842,-530460,2,2,2,2
2025-09-03 13:26:38.556,-515766,-559638,-558954,-530625,2,2,2,2
2025-09-03 13:26:38.583,-515592,-559742,-559007,-530675,2,2,2,2
2025-09-03 13:26:38.610,-499006,-559602,-575032,-530553,2,2,2,2
2025-09-03 13:26:38.637,-499059,-575999,-558692,-538753,2,2,2,2
2025-09-03 13:26:38.665,-499184,-559471,-575219,-530426,2,2,2,2
2025-09-03 13:26:38.694,-507292,-559630,-558740,-530666,2,2,2,2
2025-09-03 13:26:38.721,-498958,-559506,-558637,-530298,2,2,2,2
2025-09-03 13:26:38.749,-507249,-559604,-558746,-530657,2,2,2,2
2025-09-03 13:26:38.777,-515441,-559612,-558818,-530417,2,2,2,2
2025-09-03 13:26:38.804,-515326,-559501,-575100,-530317,2,2,2,2
2025-09-03 13:26:38.832,-515487,-559468,-558699,-530484,2,2,2,2
2025-09-03 13:26:38.859,-515482,-559389,-558691,-530472,2,2,2,2
2025-09-03 13:26:38.886,-499177,-575853,-558733,-538748,2,2,2,2
2025-09-03 13:26:38.914,-499199,-559577,-558846,-530625,2,2,2,2
2025-09-03 13:26:38.942,-499074,-575773,-558727,-530460,2,2,2,2
2025-09-03 13:26:38.969,-499063,-575809,-558723,-530463,2,2,2,2
2025-09-03 13:26:38.997,-498977,-559370,-575056,-530462,2,2,2,2
2025-09-03 13:26:39.025,-499046,-575770,-558745,-538737,2,2,2,2
2025-09-03 13:26:39.052,-515286,-559519,-575081,-530412,2,2,2,2
2025-09-03 13:26:39.079,-498927,-559370,-575106,-530432,2,2,2,2
2025-09-03 13:26:39.105,-498918,-559370,-558727,-530435,2,2,2,2
2025-09-03 13:26:39.133,-498840,-559371,-558799,-530434,2,2,2,2
2025-09-03 13:26:39.160,-498962,-575951,-558866,-530554,2,2,2,2
2025-09-03 13:26:39.187,-507017,-559386,-558817,-530438,2,2,2,2
2025-09-03 13:26:39.215,-498792,-575725,-558719,-538598,2,2,2,2
2025-09-03 13:26:39.242,-499044,-559593,-558974,-530589,2,2,2,2
2025-09-03 13:26:39.269,-498799,-575747,-558745,-538629,2,2,2,2
2025-09-03 13:26:39.298,-499165,-559644,-575486,-530792,2,2,2,2
2025-09-03 13:26:39.324,-499262,-559856,-575694,-530697,2,2,2,2
2025-09-03 13:26:39.352,-499174,-559725,-575613,-530827,2,2,2,2
2025-09-03 13:26:39.380,-515449,-559867,-575499,-530792,2,2,2,2
2025-09-03 13:26:39.407,-499061,-559868,-559118,-530798,2,2,2,2
2025-09-03 13:26:39.435,-515355,-559771,-559106,-530718,2,2,2,2
2025-09-03 13:26:39.462,-515453,-559627,-558966,-530644,2,2,2,2
2025-09-03 13:26:39.490,-507239,-559598,-558951,-530562,2,2,2,2
2025-09-03 13:26:39.516,-498924,-559476,-575435,-530445,2,2,2,2
2025-09-03 13:26:39.543,-499181,-559731,-575491,-530700,2,2,2,2
2025-09-03 13:26:39.571,-499139,-559635,-575464,-530676,2,2,2,2
2025-09-03 13:26:39.598,-499192,-559761,-559142,-530796,2,2,2,2
2025-09-03 13:26:39.625,-515571,-559755,-559215,-530733,2,2,2,2
2025-09-03 13:26:39.653,-499079,-559637,-559350,-530934,2,2,2,2
2025-09-03 13:26:39.680,-507163,-559621,-559334,-530930,2,2,2,2
2025-09-03 13:26:39.708,-499299,-576263,-559354,-539119,2,2,2,2
2025-09-03 13:26:39.735,-499209,-560113,-575973,-531090,2,2,2,2
2025-09-03 13:26:39.763,-499050,-559646,-559115,-530935,2,2,2,2
2025-09-03 13:26:39.790,-515483,-559754,-559229,-530731,2,2,2,2
2025-09-03 13:26:39.818,-515693,-559899,-559391,-530932,2,2,2,2
2025-09-03 13:26:39.845,-498989,-559643,-575561,-530933,2,2,2,2
2025-09-03 13:26:39.872,-499002,-559725,-575624,-530705,2,2,2,2
2025-09-03 13:26:39.899,-499300,-559883,-559406,-530938,2,2,2,2
2025-09-03 13:26:39.926,-499422,-560029,-575992,-531083,2,2,2,2
2025-09-03 13:26:39.953,-499223,-576272,-559490,-539149,2,2,2,2
2025-09-03 13:26:39.980,-499510,-560240,-576198,-531319,2,2,2,2
2025-09-03 13:26:40.007,-499345,-559922,-559611,-531076,2,2,2,2
2025-09-03 13:26:40.035,-507523,-559920,-559615,-531151,2,2,2,2
2025-09-03 13:26:40.063,-499591,-576632,-559869,-531353,2,2,2,2
2025-09-03 13:26:40.090,-499461,-560115,-576137,-531304,2,2,2,2
2025-09-03 13:26:40.117,-499428,-576442,-559737,-531222,2,2,2,2
2025-09-03 13:26:40.145,-507397,-560127,-559511,-531057,2,2,2,2
2025-09-03 13:26:40.172,-499232,-576281,-559617,-531091,2,2,2,2
2025-09-03 13:26:40.199,-499348,-560080,-559740,-531207,2,2,2,2
2025-09-03 13:26:40.226,-507876,-560365,-559766,-531237,2,2,2,2
2025-09-03 13:26:40.253,-515949,-560256,-559724,-531448,2,2,2,2
2025-09-03 13:26:40.280,-499358,-576520,-559849,-539503,2,2,2,2
2025-09-03 13:26:40.307,-515791,-560232,-559638,-531403,2,2,2,2
2025-09-03 13:26:40.334,-515849,-560284,-559737,-531445,2,2,2,2
2025-09-03 13:26:40.361,-499305,-560118,-559755,-531265,2,2,2,2
2025-09-03 13:26:40.388,-499650,-560231,-576249,-531330,2,2,2,2
2025-09-03 13:26:40.415,-499333,-560239,-559630,-531331,2,2,2,2
2025-09-03 13:26:40.442,-499200,-560097,-559566,-531198,2,2,2,2
2025-09-03 13:26:40.470,-499328,-559907,-559642,-531073,2,2,2,2
2025-09-03 13:26:40.497,-499203,-560102,-559771,-531196,2,2,2,2
2025-09-03 13:26:40.524,-499221,-560117,-559868,-531205,2,2,2,2
2025-09-03 13:26:40.551,-515834,-560264,-559771,-531448,2,2,2,2
2025-09-03 13:26:40.578,-515789,-560250,-576153,-531429,2,2,2,2
2025-09-03 13:26:40.605,-507399,-560094,-559618,-531206,2,2,2,2
2025-09-03 13:26:40.633,-499439,-560269,-576240,-531433,2,2,2,2
2025-09-03 13:26:40.660,-499357,-560185,-559768,-531389,2,2,2,2
2025-09-03 13:26:40.688,-499232,-576522,-559715,-539518,2,2,2,2
2025-09-03 13:26:40.715,-515722,-560252,-559773,-531431,2,2,2,2
2025-09-03 13:26:40.742,-499339,-559983,-559821,-531098,2,2,2,2
2025-09-03 13:26:40.770,-515835,-560107,-559630,-531221,2,2,2,2
2025-09-03 13:26:40.797,-499236,-560132,-576104,-531322,2,2,2,2
2025-09-03 13:26:40.824,-499340,-576336,-559764,-539370,2,2,2,2
2025-09-03 13:26:40.853,-499444,-560099,-576005,-531216,2,2,2,2
2025-09-03 13:26:40.880,-515732,-560018,-559854,-531187,2,2,2,2
2025-09-03 13:26:40.907,-499202,-576514,-559633,-539503,2,2,2,2
2025-09-03 13:26:40.935,-499440,-560142,-576014,-531306,2,2,2,2
2025-09-03 13:26:40.962,-515713,-560024,-559766,-531190,2,2,2,2
2025-09-03 13:26:40.990,-499450,-560155,-559639,-531316,2,2,2,2
2025-09-03 13:26:41.018,-499327,-576445,-559773,-531195,2,2,2,2
2025-09-03 13:26:41.045,-499401,-560032,-576208,-531210,2,2,2,2
2025-09-03 13:26:41.073,-507651,-560159,-559989,-531394,2,2,2,2
2025-09-03 13:26:41.100,-515707,-560334,-559853,-531447,2,2,2,2
2025-09-03 13:26:41.127,-499657,-560359,-576504,-531468,2,2,2,2
2025-09-03 13:26:41.155,-499324,-576735,-559870,-531205,2,2,2,2
2025-09-03 13:26:41.181,-507522,-560345,-559876,-531212,2,2,2,2
2025-09-03 13:26:41.208,-499698,-560387,-559981,-531573,2,2,2,2
2025-09-03 13:26:41.236,-507551,-560373,-559902,-531247,2,2,2,2
2025-09-03 13:26:41.264,-499448,-560137,-576371,-531359,2,2,2,2
2025-09-03 13:26:41.292,-499557,-560447,-560108,-531464,2,2,2,2
2025-09-03 13:26:41.319,-515765,-560354,-559896,-531262,2,2,2,2
2025-09-03 13:26:41.347,-515622,-560252,-576253,-531221,2,2,2,2
2025-09-03 13:26:41.374,-499221,-560228,-559852,-531208,2,2,2,2
2025-09-03 13:26:41.402,-499457,-560150,-576478,-531439,2,2,2,2
2025-09-03 13:26:41.429,-499210,-560231,-576231,-531453,2,2,2,2
2025-09-03 13:26:41.457,-515834,-560154,-576487,-531448,2,2,2,2
2025-09-03 13:26:41.484,-499470,-560495,-560126,-531463,2,2,2,2
2025-09-03 13:26:41.512,-516073,-560389,-560113,-531694,2,2,2,2
2025-09-03 13:26:41.539,-499561,-576650,-559987,-539768,2,2,2,2
2025-09-03 13:26:41.565,-499455,-560166,-559886,-531509,2,2,2,2
2025-09-03 13:26:41.593,-515658,-560276,-560016,-531394,2,2,2,2
2025-09-03 13:26:41.621,-516085,-560415,-560160,-531736,2,2,2,2
2025-09-03 13:26:41.649,-507782,-560372,-560126,-531692,2,2,2,2
2025-09-03 13:26:41.676,-515969,-560627,-576756,-531616,2,2,2,2
2025-09-03 13:26:41.703,-516109,-560524,-576662,-531827,2,2,2,2
2025-09-03 13:26:41.731,-499710,-576890,-560263,-539753,2,2,2,2
2025-09-03 13:26:41.757,-499683,-560406,-560228,-531465,2,2,2,2
2025-09-03 13:26:41.785,-499500,-560286,-576502,-531601,2,2,2,2
2025-09-03 13:26:41.812,-499567,-560610,-560143,-531683,2,2,2,2
2025-09-03 13:26:41.839,-507677,-560611,-560144,-531692,2,2,2,2
2025-09-03 13:26:41.867,-499583,-560391,-560185,-531470,2,2,2,2
2025-09-03 13:26:41.896,-516099,-560510,-576750,-531851,2,2,2,2
2025-09-03 13:26:41.923,-499701,-560515,-560367,-531853,2,2,2,2
2025-09-03 13:26:41.951,-499615,-560499,-560367,-531581,2,2,2,2
2025-09-03 13:26:41.978,-499442,-560331,-560126,-531695,2,2,2,2
2025-09-03 13:26:42.005,-499565,-576780,-560263,-540010,2,2,2,2
2025-09-03 13:26:42.032,-499579,-560402,-560345,-531570,2,2,2,2
2025-09-03 13:26:42.059,-499467,-577005,-560238,-531728,2,2,2,2
2025-09-03 13:26:42.086,-499704,-560610,-560169,-531722,2,2,2,2
2025-09-03 13:26:42.114,-499409,-560263,-576521,-531681,2,2,2,2
2025-09-03 13:26:42.142,-515727,-560268,-576287,-531439,2,2,2,2
2025-09-03 13:26:42.171,-499465,-560394,-576729,-531554,2,2,2,2
2025-09-03 13:26:42.197,-515854,-560403,-576737,-531558,2,2,2,2
2025-09-03 13:26:42.224,-499449,-560389,-560326,-531476,2,2,2,2
2025-09-03 13:26:42.251,-499487,-560503,-560366,-531570,2,2,2,2
2025-09-03 13:26:42.278,-499669,-560636,-576581,-531692,2,2,2,2
2025-09-03 13:26:42.306,-499472,-560441,-560367,-531572,2,2,2,2
2025-09-03 13:26:42.332,-499559,-560613,-560382,-531854,2,2,2,2
2025-09-03 13:26:42.360,-515867,-560511,-576671,-531591,2,2,2,2
2025-09-03 13:26:42.387,-499568,-560603,-560381,-531903,2,2,2,2
2025-09-03 13:26:42.414,-499710,-560510,-560337,-531835,2,2,2,2
2025-09-03 13:26:42.441,-499568,-577017,-560385,-531940,2,2,2,2
2025-09-03 13:26:42.468,-516196,-560868,-560616,-531932,2,2,2,2
2025-09-03 13:26:42.495,-507792,-560671,-560482,-531733,2,2,2,2
2025-09-03 13:26:42.522,-515973,-560663,-560490,-531966,2,2,2,2
2025-09-03 13:26:42.549,-499699,-560785,-560608,-531836,2,2,2,2
2025-09-03 13:26:42.575,-499692,-560498,-576656,-531836,2,2,2,2
2025-09-03 13:26:42.601,-507661,-560600,-560380,-531915,2,2,2,2
2025-09-03 13:26:42.629,-499678,-560665,-576985,-531730,2,2,2,2
2025-09-03 13:26:42.656,-499591,-560390,-560262,-531720,2,2,2,2
2025-09-03 13:26:42.683,-515943,-560541,-560225,-531664,2,2,2,2
2025-09-03 13:26:42.709,-499459,-560518,-576771,-531833,2,2,2,2
2025-09-03 13:26:42.738,-499458,-560578,-560387,-531836,2,2,2,2
2025-09-03 13:26:42.765,-499479,-576956,-560226,-539797,2,2,2,2
2025-09-03 13:26:42.793,-499460,-560591,-560413,-531846,2,2,2,2
2025-09-03 13:26:42.820,-515769,-560411,-560381,-531496,2,2,2,2
2025-09-03 13:26:42.846,-499685,-576887,-560408,-531823,2,2,2,2
2025-09-03 13:26:42.874,-499460,-560523,-576823,-531862,2,2,2,2
2025-09-03 13:26:42.900,-499457,-560538,-560436,-531841,2,2,2,2
2025-09-03 13:26:42.927,-499570,-576777,-560284,-531698,2,2,2,2
2025-09-03 13:26:42.955,-499604,-560750,-560395,-531726,2,2,2,2
2025-09-03 13:26:42.982,-515939,-560642,-560536,-531931,2,2,2,2
2025-09-03 13:26:43.009,-499486,-560639,-576652,-531604,2,2,2,2
2025-09-03 13:26:43.037,-499350,-560583,-560143,-531524,2,2,2,2
2025-09-03 13:26:43.065,-499589,-576883,-560370,-539915,2,2,2,2
2025-09-03 13:26:43.093,-507876,-560591,-560409,-531740,2,2,2,2
2025-09-03 13:26:43.121,-515974,-560765,-576772,-531737,2,2,2,2
2025-09-03 13:26:43.148,-499485,-560668,-560615,-531951,2,2,2,2
2025-09-03 13:26:43.176,-499577,-577081,-560396,-531809,2,2,2,2
2025-09-03 13:26:43.204,-516331,-560868,-560691,-532095,2,2,2,2
2025-09-03 13:26:43.232,-516046,-560771,-576792,-531812,2,2,2,2
2025-09-03 13:26:43.260,-516248,-577171,-560750,-540289,2,2,2,2
2025-09-03 13:26:43.288,-499608,-577207,-560494,-540031,2,2,2,2
2025-09-03 13:26:43.315,-516206,-577380,-560642,-540183,2,2,2,2
2025-09-03 13:26:43.342,-507905,-560883,-560797,-532216,2,2,2,2
2025-09-03 13:26:43.369,-516157,-561020,-577083,-532093,2,2,2,2
2025-09-03 13:26:43.396,-516347,-561137,-560855,-532222,2,2,2,2
2025-09-03 13:26:43.424,-516351,-560903,-560889,-531990,2,2,2,2
2025-09-03 13:26:43.450,-516301,-560780,-577079,-532194,2,2,2,2
2025-09-03 13:26:43.478,-516131,-561001,-560650,-532096,2,2,2,2
2025-09-03 13:26:43.506,-516119,-560737,-560647,-532093,2,2,2,2
2025-09-03 13:26:43.533,-516228,-561042,-560751,-532199,2,2,2,2
2025-09-03 13:26:43.561,-516151,-560771,-577148,-532197,2,2,2,2
2025-09-03 13:26:43.587,-516107,-560656,-560653,-532107,2,2,2,2
2025-09-03 13:26:43.615,-499473,-560657,-560392,-531842,2,2,2,2
2025-09-03 13:26:43.641,-499609,-560869,-560544,-531990,2,2,2,2
2025-09-03 13:26:43.669,-516232,-560795,-560755,-531975,2,2,2,2
2025-09-03 13:26:43.698,-516322,-560873,-560848,-532069,2,2,2,2
2025-09-03 13:26:43.725,-516224,-577155,-560766,-540180,2,2,2,2
2025-09-03 13:26:43.752,-516218,-577139,-560756,-531974,2,2,2,2
2025-09-03 13:26:43.780,-499575,-560742,-560424,-531946,2,2,2,2
2025-09-03 13:26:43.808,-499701,-560871,-560544,-532083,2,2,2,2
2025-09-03 13:26:43.835,-515845,-560626,-560621,-531775,2,2,2,2
2025-09-03 13:26:43.863,-516218,-577102,-560670,-532202,2,2,2,2
2025-09-03 13:26:43.889,-516113,-560886,-560634,-532161,2,2,2,2
2025-09-03 13:26:43.916,-516111,-560880,-576976,-532086,2,2,2,2
2025-09-03 13:26:43.945,-516102,-560793,-560878,-532000,2,2,2,2
2025-09-03 13:26:43.973,-516316,-561002,-577157,-532198,2,2,2,2
2025-09-03 13:26:44.001,-516336,-577399,-560781,-540399,2,2,2,2
2025-09-03 13:26:44.029,-516292,-560886,-577039,-532109,2,2,2,2
2025-09-03 13:26:44.057,-516310,-560641,-577055,-532120,2,2,2,2
2025-09-03 13:26:44.083,-508056,-560641,-560669,-532187,2,2,2,2
2025-09-03 13:26:44.110,-516315,-560641,-577084,-532112,2,2,2,2
2025-09-03 13:26:44.138,-516227,-560873,-560654,-532167,2,2,2,2
2025-09-03 13:26:44.164,-516029,-560624,-576774,-531911,2,2,2,2
2025-09-03 13:26:44.190,-516131,-560743,-577237,-531999,2,2,2,2
2025-09-03 13:26:44.218,-516124,-577093,-560532,-531991,2,2,2,2
2025-09-03 13:26:44.246,-516228,-560702,-560875,-532094,2,2,2,2
2025-09-03 13:26:44.274,-516369,-560895,-560683,-532235,2,2,2,2
2025-09-03 13:26:44.302,-516128,-560644,-560774,-531986,2,2,2,2
2025-09-03 13:26:44.330,-516212,-577031,-560782,-531980,2,2,2,2
2025-09-03 13:26:44.357,-508026,-560651,-560793,-532029,2,2,2,2
2025-09-03 13:26:44.385,-516341,-560760,-560651,-532112,2,2,2,2
2025-09-03 13:26:44.411,-516152,-560886,-577167,-532069,2,2,2,2
2025-09-03 13:26:44.440,-516212,-560787,-577143,-531970,2,2,2,2
2025-09-03 13:26:44.467,-499697,-560399,-560626,-531841,2,2,2,2
2025-09-03 13:26:44.494,-516114,-560660,-577030,-532115,2,2,2,2
2025-09-03 13:26:44.522,-516100,-560636,-560631,-531891,2,2,2,2
2025-09-03 13:26:44.548,-516204,-560414,-560407,-531961,2,2,2,2
2025-09-03 13:26:44.575,-516115,-560389,-560631,-531903,2,2,2,2
2025-09-03 13:26:44.603,-516345,-560534,-560592,-532083,2,2,2,2
2025-09-03 13:26:44.630,-516216,-576786,-560638,-531955,2,2,2,2
2025-09-03 13:26:44.658,-516133,-560626,-560620,-531872,2,2,2,2
2025-09-03 13:26:44.686,-516240,-576791,-560405,-531962,2,2,2,2
2025-09-03 13:26:44.712,-516232,-560655,-560643,-532211,2,2,2,2
2025-09-03 13:26:44.740,-516135,-560544,-576958,-532110,2,2,2,2
2025-09-03 13:26:44.768,-516343,-560670,-560744,-531977,2,2,2,2
2025-09-03 13:26:44.795,-516228,-560536,-560633,-532117,2,2,2,2
2025-09-03 13:26:44.822,-516382,-560775,-560857,-532085,2,2,2,2
2025-09-03 13:26:44.849,-516106,-576877,-560520,-540176,2,2,2,2
2025-09-03 13:26:44.876,-516353,-560659,-577148,-532220,2,2,2,2
2025-09-03 13:26:44.904,-516151,-560484,-560536,-532007,2,2,2,2
2025-09-03 13:26:44.930,-516323,-560538,-576775,-531940,2,2,2,2
2025-09-03 13:26:44.958,-516340,-560544,-577031,-532201,2,2,2,2
2025-09-03 13:26:44.986,-516122,-560631,-576882,-531971,2,2,2,2
2025-09-03 13:26:45.013,-516216,-560481,-560595,-532065,2,2,2,2
2025-09-03 13:26:45.041,-516227,-560407,-560525,-531769,2,2,2,2
2025-09-03 13:26:45.068,-516323,-560509,-560621,-532084,2,2,2,2
2025-09-03 13:26:45.095,-516171,-560386,-560519,-531733,2,2,2,2
2025-09-03 13:26:45.122,-516327,-560590,-560401,-531940,2,2,2,2
2025-09-03 13:26:45.149,-516332,-576926,-560393,-540140,2,2,2,2
2025-09-03 13:26:45.175,-516296,-560494,-576994,-532089,2,2,2,2
2025-09-03 13:26:45.203,-516240,-576899,-560540,-540285,2,2,2,2
2025-09-03 13:26:45.230,-516150,-560639,-560415,-531956,2,2,2,2
2025-09-03 13:26:45.258,-516345,-560533,-560632,-531928,2,2,2,2
2025-09-03 13:26:45.285,-516373,-577019,-560659,-540401,2,2,2,2
2025-09-03 13:26:45.312,-516221,-576798,-560516,-532075,2,2,2,2
2025-09-03 13:26:45.339,-516140,-560630,-576822,-531987,2,2,2,2
2025-09-03 13:26:45.366,-516341,-560521,-560644,-532194,2,2,2,2
2025-09-03 13:26:45.394,-516216,-576786,-560533,-532097,2,2,2,2
2025-09-03 13:26:45.422,-516103,-560526,-560389,-531970,2,2,2,2
2025-09-03 13:26:45.449,-516228,-560390,-560538,-532109,2,2,2,2
2025-09-03 13:26:45.477,-516233,-560630,-560518,-532168,2,2,2,2
2025-09-03 13:26:45.505,-516331,-560412,-560610,-532203,2,2,2,2
2025-09-03 13:26:45.533,-516461,-576926,-560670,-540270,2,2,2,2
2025-09-03 13:26:45.560,-516347,-560492,-560628,-532223,2,2,2,2
2025-09-03 13:26:45.588,-516360,-560770,-560659,-532250,2,2,2,2
2025-09-03 13:26:45.616,-516599,-560759,-560894,-532242,2,2,2,2
2025-09-03 13:26:45.642,-516141,-560625,-576889,-532110,2,2,2,2
2025-09-03 13:26:45.670,-516594,-560773,-560655,-532256,2,2,2,2
2025-09-03 13:26:45.698,-516488,-560741,-560870,-532477,2,2,2,2
2025-09-03 13:26:45.725,-516633,-561148,-561005,-549077,2,2,2,2
2025-09-03 13:26:45.752,-516845,-561125,-560919,-532618,2,2,2,2
2025-09-03 13:26:45.780,-516604,-560891,-577341,-532359,2,2,2,2
2025-09-03 13:26:45.807,-516599,-560899,-577345,-532361,2,2,2,2
2025-09-03 13:26:45.834,-516599,-560914,-560950,-532379,2,2,2,2
2025-09-03 13:26:45.861,-516742,-561040,-561136,-548888,2,2,2,2
2025-09-03 13:26:45.888,-516636,-560940,-561033,-532431,2,2,2,2
2025-09-03 13:26:45.915,-516758,-561052,-561147,-548966,2,2,2,2
2025-09-03 13:26:45.941,-516390,-560769,-577265,-532249,2,2,2,2
2025-09-03 13:26:45.968,-516614,-560925,-561022,-532470,2,2,2,2
2025-09-03 13:26:45.995,-516619,-577329,-561025,-532461,2,2,2,2
2025-09-03 13:26:46.023,-516836,-561135,-560999,-532622,2,2,2,2
2025-09-03 13:26:46.050,-516680,-561018,-561126,-548891,2,2,2,2
2025-09-03 13:26:46.076,-516560,-560871,-577333,-532358,2,2,2,2
2025-09-03 13:26:46.103,-516710,-561018,-561142,-548889,2,2,2,2
2025-09-03 13:26:46.131,-516605,-560678,-560782,-532236,2,2,2,2
2025-09-03 13:26:46.158,-516452,-560787,-560894,-532345,2,2,2,2
2025-09-03 13:26:46.185,-516458,-577215,-560655,-540551,2,2,2,2
2025-09-03 13:26:46.212,-516470,-560867,-560669,-532453,2,2,2,2
2025-09-03 13:26:46.239,-516345,-560768,-577255,-532339,2,2,2,2
2025-09-03 13:26:46.267,-516496,-560740,-560770,-532246,2,2,2,2
2025-09-03 13:26:46.294,-516357,-560794,-577290,-532361,2,2,2,2
2025-09-03 13:26:46.322,-516589,-560789,-577280,-532359,2,2,2,2
2025-09-03 13:26:46.348,-516374,-577275,-560742,-532450,2,2,2,2
2025-09-03 13:26:46.374,-516254,-560785,-560896,-532348,2,2,2,2
2025-09-03 13:26:46.400,-516361,-560912,-577400,-532470,2,2,2,2
2025-09-03 13:26:46.427,-508160,-560894,-560748,-532465,2,2,2,2
2025-09-03 13:26:46.455,-516111,-560663,-560774,-532239,2,2,2,2
2025-09-03 13:26:46.483,-516244,-576958,-560660,-540320,2,2,2,2
2025-09-03 13:26:46.510,-516338,-560625,-560669,-532175,2,2,2,2
2025-09-03 13:26:46.537,-516101,-577030,-560751,-532215,2,2,2,2
2025-09-03 13:26:46.565,-516277,-560770,-577272,-532351,2,2,2,2
2025-09-03 13:26:46.592,-516215,-560690,-560887,-532337,2,2,2,2
2025-09-03 13:26:46.620,-516234,-577155,-560648,-540542,2,2,2,2
2025-09-03 13:26:46.648,-516301,-560775,-577088,-532368,2,2,2,2
2025-09-03 13:26:46.675,-516253,-560609,-560758,-532191,2,2,2,2
2025-09-03 13:26:46.703,-516340,-560635,-560774,-532233,2,2,2,2
2025-09-03 13:26:46.730,-507921,-560662,-560799,-532261,2,2,2,2
2025-09-03 13:26:46.757,-516337,-560646,-577100,-532240,2,2,2,2
2025-09-03 13:26:46.783,-508015,-560581,-560634,-532086,2,2,2,2
2025-09-03 13:26:46.811,-516209,-560762,-560649,-532349,2,2,2,2
2025-09-03 13:26:46.838,-516334,-560661,-577173,-532241,2,2,2,2
2025-09-03 13:26:46.866,-516226,-577223,-560670,-540576,2,2,2,2
2025-09-03 13:26:46.893,-516298,-560873,-577122,-532452,2,2,2,2
2025-09-03 13:26:46.920,-516327,-577036,-560751,-532467,2,2,2,2
2025-09-03 13:26:46.946,-516233,-560625,-560660,-532187,2,2,2,2
2025-09-03 13:26:46.974,-516109,-560742,-560845,-532245,2,2,2,2
2025-09-03 13:26:47.001,-516367,-560745,-560852,-532255,2,2,2,2
2025-09-03 13:26:47.029,-516205,-560856,-560891,-532364,2,2,2,2
2025-09-03 13:26:47.056,-516343,-560691,-560781,-532278,2,2,2,2
2025-09-03 13:26:47.084,-516323,-560655,-560756,-532455,2,2,2,2
2025-09-03 13:26:47.112,-516345,-560745,-560701,-532472,2,2,2,2
2025-09-03 13:26:47.139,-516233,-560887,-560664,-532431,2,2,2,2
2025-09-03 13:26:47.167,-516256,-560680,-560770,-532474,2,2,2,2
2025-09-03 13:26:47.195,-516110,-560527,-560610,-532002,2,2,2,2
2025-09-03 13:26:47.222,-516159,-560653,-577043,-532113,2,2,2,2
2025-09-03 13:26:47.249,-516109,-560787,-577215,-532252,2,2,2,2
2025-09-03 13:26:47.276,-516379,-560872,-560881,-532280,2,2,2,2
2025-09-03 13:26:47.303,-516350,-560790,-577202,-532324,2,2,2,2
2025-09-03 13:26:47.330,-516342,-560796,-560841,-532322,2,2,2,2
2025-09-03 13:26:47.358,-499572,-576846,-560399,-540394,2,2,2,2
2025-09-03 13:26:47.386,-499516,-560514,-576786,-532212,2,2,2,2
2025-09-03 13:26:47.413,-516084,-560643,-576912,-532082,2,2,2,2
2025-09-03 13:26:47.440,-499472,-560408,-560620,-532122,2,2,2,2
2025-09-03 13:26:47.468,-516238,-560788,-560670,-532236,2,2,2,2
2025-09-03 13:26:47.495,-516230,-577157,-560653,-540430,2,2,2,2
2025-09-03 13:26:47.523,-516123,-560672,-560628,-532204,2,2,2,2
2025-09-03 13:26:47.550,-499710,-560647,-576900,-532113,2,2,2,2
2025-09-03 13:26:47.576,-499557,-576891,-560372,-540167,2,2,2,2
2025-09-03 13:26:47.605,-499709,-560659,-576966,-532115,2,2,2,2
2025-09-03 13:26:47.632,-499572,-560520,-560379,-531990,2,2,2,2
2025-09-03 13:26:47.660,-515966,-560534,-560629,-531985,2,2,2,2
2025-09-03 13:26:47.687,-499471,-560398,-560491,-532112,2,2,2,2
2025-09-03 13:26:47.713,-499474,-560400,-560495,-532100,2,2,2,2
2025-09-03 13:26:47.741,-516106,-560632,-560414,-532076,2,2,2,2
2025-09-03 13:26:47.768,-499616,-560589,-560635,-531983,2,2,2,2
2025-09-03 13:26:47.795,-508063,-560689,-560615,-532214,2,2,2,2
2025-09-03 13:26:47.823,-499556,-576774,-560514,-540300,2,2,2,2
2025-09-03 13:26:47.850,-516227,-577070,-560612,-532194,2,2,2,2
2025-09-03 13:26:47.876,-499563,-560401,-560514,-532111,2,2,2,2
2025-09-03 13:26:47.904,-499685,-576960,-560634,-532214,2,2,2,2
2025-09-03 13:26:47.931,-499575,-560410,-560586,-532084,2,2,2,2
2025-09-03 13:26:47.958,-516149,-560896,-577144,-532254,2,2,2,2
2025-09-03 13:26:47.985,-516343,-560750,-576964,-532120,2,2,2,2
2025-09-03 13:26:48.012,-499706,-560411,-560626,-532103,2,2,2,2
2025-09-03 13:26:48.040,-516335,-560663,-560600,-532097,2,2,2,2
2025-09-03 13:26:48.067,-516158,-560525,-576774,-532216,2,2,2,2
2025-09-03 13:26:48.095,-516206,-560594,-560397,-532171,2,2,2,2
2025-09-03 13:26:48.121,-516219,-560787,-560664,-532221,2,2,2,2
2025-09-03 13:26:48.149,-516245,-560623,-560407,-532023,2,2,2,2
2025-09-03 13:26:48.176,-516228,-576927,-560394,-540411,2,2,2,2
2025-09-03 13:26:48.204,-516323,-560638,-576784,-531988,2,2,2,2
2025-09-03 13:26:48.231,-516238,-577182,-560643,-540386,2,2,2,2
2025-09-03 13:26:48.257,-508055,-560621,-560403,-532200,2,2,2,2
2025-09-03 13:26:48.284,-516121,-560743,-576831,-532074,2,2,2,2
2025-09-03 13:26:48.312,-516345,-560661,-576865,-532224,2,2,2,2
2025-09-03 13:26:48.339,-516377,-560683,-560748,-532274,2,2,2,2
2025-09-03 13:26:48.367,-508158,-560665,-560404,-532213,2,2,2,2
2025-09-03 13:26:48.394,-516123,-560514,-560428,-531976,2,2,2,2
2025-09-03 13:26:48.421,-516303,-560616,-576911,-532080,2,2,2,2
2025-09-03 13:26:48.448,-516197,-560756,-560399,-532216,2,2,2,2
2025-09-03 13:26:48.475,-516175,-560763,-576791,-532204,2,2,2,2
2025-09-03 13:26:48.502,-516248,-577173,-560492,-540175,2,2,2,2
2025-09-03 13:26:48.529,-516357,-577276,-560537,-540271,2,2,2,2
2025-09-03 13:26:48.556,-508170,-560648,-560543,-532012,2,2,2,2
2025-09-03 13:26:48.583,-516149,-560753,-577022,-532102,2,2,2,2
2025-09-03 13:26:48.610,-516362,-560889,-576911,-531990,2,2,2,2
2025-09-03 13:26:48.637,-516362,-560894,-560526,-531981,2,2,2,2
2025-09-03 13:26:48.664,-516245,-560784,-560483,-532201,2,2,2,2
2025-09-03 13:26:48.692,-516383,-560663,-560620,-532082,2,2,2,2
2025-09-03 13:26:48.719,-507926,-560645,-560524,-531975,2,2,2,2
2025-09-03 13:26:48.746,-516243,-577145,-560393,-532105,2,2,2,2
2025-09-03 13:26:48.774,-516359,-560889,-560438,-532224,2,2,2,2
2025-09-03 13:26:48.801,-516147,-560756,-576966,-532098,2,2,2,2
2025-09-03 13:26:48.828,-516226,-560422,-560361,-531790,2,2,2,2
2025-09-03 13:26:48.855,-516124,-577021,-560525,-531972,2,2,2,2
2025-09-03 13:26:48.883,-516155,-560403,-576748,-531814,2,2,2,2
2025-09-03 13:26:48.910,-516343,-560520,-576871,-531863,2,2,2,2
2025-09-03 13:26:48.937,-516472,-577270,-560535,-540184,2,2,2,2
2025-09-03 13:26:48.965,-516256,-560664,-560387,-532112,2,2,2,2
2025-09-03 13:26:48.993,-516238,-577011,-560542,-532081,2,2,2,2
2025-09-03 13:26:49.020,-516421,-560780,-576888,-531983,2,2,2,2
2025-09-03 13:26:49.047,-516331,-560651,-560387,-532181,2,2,2,2
2025-09-03 13:26:49.074,-516394,-560781,-576946,-531983,2,2,2,2
2025-09-03 13:26:49.101,-508301,-560877,-560617,-532025,2,2,2,2
2025-09-03 13:26:49.129,-508135,-560651,-560385,-532032,2,2,2,2
2025-09-03 13:26:49.156,-516329,-560632,-560386,-532107,2,2,2,2
2025-09-03 13:26:49.183,-516330,-560636,-576781,-532121,2,2,2,2
2025-09-03 13:26:49.210,-516451,-560752,-560448,-531990,2,2,2,2
2025-09-03 13:26:49.237,-516377,-560747,-560756,-532231,2,2,2,2
2025-09-03 13:26:49.265,-516842,-577476,-560881,-540557,2,2,2,2
2025-09-03 13:26:49.292,-516862,-561121,-560886,-532428,2,2,2,2
2025-09-03 13:26:49.320,-508542,-560941,-560759,-532253,2,2,2,2
2025-09-03 13:26:49.347,-516502,-560767,-560847,-532341,2,2,2,2
2025-09-03 13:26:49.374,-516480,-560737,-560517,-531991,2,2,2,2
2025-09-03 13:26:49.401,-516499,-560762,-560859,-532327,2,2,2,2
2025-09-03 13:26:49.429,-516340,-560522,-560621,-532077,2,2,2,2
2025-09-03 13:26:49.455,-516496,-577104,-560529,-540170,2,2,2,2
2025-09-03 13:26:49.483,-516377,-560888,-560657,-532175,2,2,2,2
2025-09-03 13:26:49.510,-516365,-560875,-560658,-532163,2,2,2,2
2025-09-03 13:26:49.539,-516369,-560627,-560414,-532104,2,2,2,2
2025-09-03 13:26:49.566,-516324,-560523,-576995,-531997,2,2,2,2
2025-09-03 13:26:49.593,-516413,-560758,-576951,-532222,2,2,2,2
2025-09-03 13:26:49.621,-516568,-560797,-576921,-531996,2,2,2,2
2025-09-03 13:26:49.648,-516566,-560795,-576973,-531988,2,2,2,2
2025-09-03 13:26:49.675,-516493,-560874,-560618,-531976,2,2,2,2
2025-09-03 13:26:49.703,-516359,-560650,-576776,-532084,2,2,2,2
2025-09-03 13:26:49.731,-516341,-560631,-560624,-531999,2,2,2,2
2025-09-03 13:26:49.759,-516364,-560646,-577021,-531998,2,2,2,2
2025-09-03 13:26:49.786,-516354,-560655,-577024,-531990,2,2,2,2
2025-09-03 13:26:49.814,-516396,-560775,-577067,-532090,2,2,2,2
2025-09-03 13:26:49.841,-516359,-560737,-560641,-531978,2,2,2,2
2025-09-03 13:26:49.868,-516852,-560918,-560862,-532458,2,2,2,2
2025-09-03 13:26:49.895,-516487,-577169,-560742,-540269,2,2,2,2
2025-09-03 13:26:49.923,-516810,-561142,-577139,-532333,2,2,2,2
2025-09-03 13:26:49.951,-516496,-577270,-560773,-540282,2,2,2,2
2025-09-03 13:26:49.978,-516631,-561044,-560647,-532217,2,2,2,2
2025-09-03 13:26:50.005,-516592,-560949,-560875,-532149,2,2,2,2
2025-09-03 13:26:50.033,-516609,-560946,-560872,-532121,2,2,2,2
2025-09-03 13:26:50.060,-516561,-560886,-577081,-531999,2,2,2,2
2025-09-03 13:26:50.087,-516377,-560789,-576971,-531975,2,2,2,2
2025-09-03 13:26:50.115,-516621,-561011,-560847,-532206,2,2,2,2
2025-09-03 13:26:50.143,-516358,-560759,-560524,-531958,2,2,2,2
2025-09-03 13:26:50.170,-516475,-577260,-560624,-532068,2,2,2,2
2025-09-03 13:26:50.198,-516634,-560954,-560770,-532219,2,2,2,2
2025-09-03 13:26:50.225,-516369,-577152,-560500,-532206,2,2,2,2
2025-09-03 13:26:50.252,-516597,-560655,-576776,-532087,2,2,2,2
2025-09-03 13:26:50.280,-516593,-560652,-577015,-532076,2,2,2,2
2025-09-03 13:26:50.313,-516491,-560878,-560542,-531981,2,2,2,2
2025-09-03 13:26:50.335,-516609,-577350,-560643,-532085,2,2,2,2
2025-09-03 13:26:50.362,-516631,-561089,-560745,-532112,2,2,2,2
2025-09-03 13:26:50.390,-516495,-577257,-560526,-540412,2,2,2,2
2025-09-03 13:26:50.417,-516529,-560888,-560613,-531987,2,2,2,2
2025-09-03 13:26:50.443,-516585,-560892,-577018,-532065,2,2,2,2
2025-09-03 13:26:50.471,-516235,-560630,-560288,-531716,2,2,2,2
2025-09-03 13:26:50.497,-516599,-560666,-560402,-532029,2,2,2,2
2025-09-03 13:26:50.524,-516480,-577224,-560544,-531979,2,2,2,2
2025-09-03 13:26:50.552,-516466,-560855,-560515,-532210,2,2,2,2
2025-09-03 13:26:50.580,-516403,-560764,-560493,-532190,2,2,2,2
2025-09-03 13:26:50.606,-516369,-560675,-560484,-532110,2,2,2,2
2025-09-03 13:26:50.634,-516594,-560644,-576787,-532065,2,2,2,2
2025-09-03 13:26:50.662,-516570,-560874,-577023,-531986,2,2,2,2
2025-09-03 13:26:50.690,-516511,-577270,-560652,-540174,2,2,2,2
2025-09-03 13:26:50.718,-516354,-560649,-576887,-531998,2,2,2,2
2025-09-03 13:26:50.746,-516603,-560879,-560739,-531978,2,2,2,2
2025-09-03 13:26:50.772,-516607,-560891,-560752,-531993,2,2,2,2
2025-09-03 13:26:50.799,-516588,-560869,-577088,-532203,2,2,2,2
2025-09-03 13:26:50.827,-516607,-560875,-560494,-531973,2,2,2,2
2025-09-03 13:26:50.854,-516666,-560924,-577163,-532000,2,2,2,2
2025-09-03 13:26:50.882,-516558,-560798,-560669,-532201,2,2,2,2
2025-09-03 13:26:50.909,-516600,-560800,-560432,-531872,2,2,2,2
2025-09-03 13:26:50.936,-516365,-577206,-560491,-540142,2,2,2,2
2025-09-03 13:26:50.963,-516563,-560656,-576976,-531814,2,2,2,2
2025-09-03 13:26:50.991,-516466,-560869,-560526,-531973,2,2,2,2
2025-09-03 13:26:51.018,-516362,-577145,-560500,-540137,2,2,2,2
2025-09-03 13:26:51.045,-516636,-577220,-560759,-532208,2,2,2,2
2025-09-03 13:26:51.072,-516750,-560892,-560880,-532006,2,2,2,2
2025-09-03 13:26:51.100,-516630,-560692,-560749,-532125,2,2,2,2
2025-09-03 13:26:51.128,-516748,-560887,-560881,-532038,2,2,2,2
2025-09-03 13:26:51.154,-516855,-560997,-560678,-532106,2,2,2,2
2025-09-03 13:26:51.180,-516830,-560911,-577296,-532346,2,2,2,2
2025-09-03 13:26:51.207,-516606,-560764,-577067,-532104,2,2,2,2
2025-09-03 13:26:51.234,-516724,-560890,-560791,-531984,2,2,2,2
2025-09-03 13:26:51.261,-516597,-560768,-577080,-532103,2,2,2,2
2025-09-03 13:26:51.289,-516497,-560666,-560631,-531763,2,2,2,2
2025-09-03 13:26:51.315,-516719,-577267,-560771,-531990,2,2,2,2
2025-09-03 13:26:51.343,-516454,-560865,-560447,-531993,2,2,2,2
2025-09-03 13:26:51.372,-508558,-560906,-560777,-532269,2,2,2,2
2025-09-03 13:26:51.399,-516828,-560923,-577237,-532076,2,2,2,2
2025-09-03 13:26:51.426,-516498,-560737,-560599,-532067,2,2,2,2
2025-09-03 13:26:51.453,-508389,-560679,-560536,-532009,2,2,2,2
2025-09-03 13:26:51.481,-516855,-561040,-560886,-532168,2,2,2,2
2025-09-03 13:26:51.510,-516551,-560764,-576925,-532087,2,2,2,2
2025-09-03 13:26:51.537,-516759,-560916,-560764,-532068,2,2,2,2
2025-09-03 13:26:51.564,-516573,-560666,-560586,-532081,2,2,2,2
2025-09-03 13:26:51.592,-516542,-560749,-576922,-532173,2,2,2,2
2025-09-03 13:26:51.619,-516738,-560897,-560770,-532016,2,2,2,2
2025-09-03 13:26:51.647,-516450,-560622,-560495,-531779,2,2,2,2
2025-09-03 13:26:51.674,-516762,-577350,-560877,-532114,2,2,2,2
2025-09-03 13:26:51.702,-516723,-560882,-560772,-532013,2,2,2,2
2025-09-03 13:26:51.729,-508397,-560696,-560652,-532202,2,2,2,2
2025-09-03 13:26:51.756,-516726,-560909,-560857,-532078,2,2,2,2
2025-09-03 13:26:51.784,-516354,-560774,-560412,-531965,2,2,2,2
2025-09-03 13:26:51.811,-516214,-560613,-560277,-531776,2,2,2,2
2025-09-03 13:26:51.838,-516461,-576955,-560500,-539927,2,2,2,2
2025-09-03 13:26:51.866,-516362,-560528,-560487,-531737,2,2,2,2
2025-09-03 13:26:51.893,-516344,-560443,-560409,-531716,2,2,2,2
2025-09-03 13:26:51.921,-516502,-577028,-560540,-531869,2,2,2,2
2025-09-03 13:26:51.948,-516608,-560668,-576778,-531952,2,2,2,2
2025-09-03 13:26:51.975,-516469,-560439,-560484,-531728,2,2,2,2
2025-09-03 13:26:52.002,-516468,-576897,-560500,-540008,2,2,2,2
2025-09-03 13:26:52.030,-516608,-560654,-560635,-532204,2,2,2,2
2025-09-03 13:26:52.057,-516459,-560530,-560488,-531750,2,2,2,2
2025-09-03 13:26:52.085,-516560,-560613,-576979,-531849,2,2,2,2
2025-09-03 13:26:52.111,-516594,-560647,-560385,-531934,2,2,2,2
2025-09-03 13:26:52.139,-516312,-560370,-576718,-531595,2,2,2,2
2025-09-03 13:26:52.167,-516339,-560411,-560154,-531703,2,2,2,2
2025-09-03 13:26:52.194,-516172,-560525,-560271,-531757,2,2,2,2
2025-09-03 13:26:52.221,-516103,-560169,-560237,-531710,2,2,2,2
2025-09-03 13:26:52.249,-516377,-560485,-560502,-531957,2,2,2,2
2025-09-03 13:26:52.276,-516376,-560490,-576888,-531957,2,2,2,2
2025-09-03 13:26:52.304,-516117,-576797,-560243,-531687,2,2,2,2
2025-09-03 13:26:52.331,-516106,-560490,-576622,-531609,2,2,2,2
2025-09-03 13:26:52.358,-508152,-560640,-560411,-531770,2,2,2,2
2025-09-03 13:26:52.385,-516377,-560484,-576886,-531839,2,2,2,2
2025-09-03 13:26:52.413,-516278,-560355,-576753,-531703,2,2,2,2
2025-09-03 13:26:52.441,-508012,-560438,-560266,-531647,2,2,2,2
2025-09-03 13:26:52.468,-507921,-560410,-560228,-531507,2,2,2,2
2025-09-03 13:26:52.495,-516311,-560358,-576755,-531464,2,2,2,2
2025-09-03 13:26:52.522,-516353,-560396,-560481,-531820,2,2,2,2
2025-09-03 13:26:52.550,-516341,-560382,-560159,-531570,2,2,2,2
2025-09-03 13:26:52.579,-516353,-560401,-576894,-531851,2,2,2,2
2025-09-03 13:26:52.607,-516335,-577012,-560413,-531819,2,2,2,2
2025-09-03 13:26:52.634,-516466,-560748,-560544,-531958,2,2,2,2
2025-09-03 13:26:52.661,-516597,-560619,-576869,-531847,2,2,2,2
2025-09-03 13:26:52.689,-516511,-576900,-560640,-531741,2,2,2,2
2025-09-03 13:26:52.717,-516492,-560446,-560631,-531773,2,2,2,2
2025-09-03 13:26:52.745,-516585,-560614,-560403,-531831,2,2,2,2
2025-09-03 13:26:52.772,-516579,-576951,-560387,-540004,2,2,2,2
2025-09-03 13:26:52.799,-516600,-560628,-576800,-531846,2,2,2,2
2025-09-03 13:26:52.826,-516382,-560416,-560592,-531962,2,2,2,2
2025-09-03 13:26:52.854,-508267,-560423,-560609,-531720,2,2,2,2
2025-09-03 13:26:52.880,-516375,-576781,-560518,-540147,2,2,2,2
2025-09-03 13:26:52.908,-516198,-560396,-560268,-531703,2,2,2,2
2025-09-03 13:26:52.935,-516255,-560506,-560388,-531825,2,2,2,2
2025-09-03 13:26:52.961,-508405,-560588,-560399,-531830,2,2,2,2
2025-09-03 13:26:52.990,-516583,-560771,-577031,-532096,2,2,2,2
2025-09-03 13:26:53.016,-516576,-560761,-577014,-532079,2,2,2,2
2025-09-03 13:26:53.044,-516452,-560637,-560499,-531961,2,2,2,2
2025-09-03 13:26:53.070,-516373,-560637,-560438,-531962,2,2,2,2
2025-09-03 13:26:53.097,-516588,-560784,-577037,-532103,2,2,2,2
2025-09-03 13:26:53.126,-516755,-577158,-560890,-540278,2,2,2,2
2025-09-03 13:26:53.152,-516478,-560753,-560619,-531996,2,2,2,2
2025-09-03 13:26:53.180,-516373,-560637,-560438,-531946,2,2,2,2
2025-09-03 13:26:53.207,-516636,-560865,-560834,-532198,2,2,2,2
2025-09-03 13:26:53.235,-516720,-577028,-560780,-531969,2,2,2,2
2025-09-03 13:26:53.263,-516735,-577073,-560795,-531978,2,2,2,2
2025-09-03 13:26:53.290,-516584,-560836,-560663,-532108,2,2,2,2
2025-09-03 13:26:53.317,-516380,-560617,-576892,-531967,2,2,2,2
2025-09-03 13:26:53.344,-516468,-560650,-560539,-531982,2,2,2,2
2025-09-03 13:26:53.372,-516719,-560644,-560783,-532030,2,2,2,2
2025-09-03 13:26:53.399,-516565,-560755,-577021,-532101,2,2,2,2
2025-09-03 13:26:53.425,-516410,-560669,-576968,-532076,2,2,2,2
2025-09-03 13:26:53.452,-508310,-560690,-560652,-532166,2,2,2,2
2025-09-03 13:26:53.480,-516381,-560387,-560613,-531732,2,2,2,2
2025-09-03 13:26:53.506,-516458,-560394,-560622,-531742,2,2,2,2
2025-09-03 13:26:53.533,-516350,-560623,-560516,-531954,2,2,2,2
2025-09-03 13:26:53.561,-516474,-560740,-560622,-532077,2,2,2,2
2025-09-03 13:26:53.588,-516607,-560798,-560756,-532183,2,2,2,2
2025-09-03 13:26:53.615,-516833,-560779,-577046,-532108,2,2,2,2
2025-09-03 13:26:53.642,-516512,-560779,-560654,-532021,2,2,2,2
2025-09-03 13:26:53.669,-516569,-560512,-577019,-531822,2,2,2,2
2025-09-03 13:26:53.698,-516537,-560537,-560392,-531766,2,2,2,2
2025-09-03 13:26:53.725,-516405,-560771,-577011,-531985,2,2,2,2
2025-09-03 13:26:53.752,-516378,-576839,-560519,-531945,2,2,2,2
2025-09-03 13:26:53.781,-516341,-560416,-560500,-531921,2,2,2,2
2025-09-03 13:26:53.808,-516223,-560610,-560367,-531723,2,2,2,2
2025-09-03 13:26:53.835,-516457,-576981,-560525,-531947,2,2,2,2
2025-09-03 13:26:53.862,-516358,-560504,-560433,-531864,2,2,2,2
2025-09-03 13:26:53.890,-516328,-560385,-560393,-531770,2,2,2,2
2025-09-03 13:26:53.917,-516358,-560411,-560436,-531846,2,2,2,2
2025-09-03 13:26:53.943,-516546,-560524,-560605,-531716,2,2,2,2
2025-09-03 13:26:53.969,-516395,-560748,-576896,-531872,2,2,2,2
2025-09-03 13:26:53.996,-516110,-560370,-560232,-531589,2,2,2,2
2025-09-03 13:26:54.023,-516351,-560369,-560158,-531503,2,2,2,2
2025-09-03 13:26:54.051,-516425,-560409,-560516,-531930,2,2,2,2
2025-09-03 13:26:54.078,-516329,-560599,-560379,-531726,2,2,2,2
2025-09-03 13:26:54.105,-516343,-560540,-560384,-531738,2,2,2,2
2025-09-03 13:26:54.134,-516364,-576969,-560396,-540018,2,2,2,2
2025-09-03 13:26:54.161,-508014,-560385,-560238,-531595,2,2,2,2
2025-09-03 13:26:54.188,-508387,-560437,-560543,-531726,2,2,2,2
2025-09-03 13:26:54.215,-516506,-560419,-560537,-531960,2,2,2,2
2025-09-03 13:26:54.242,-516235,-560155,-560264,-531685,2,2,2,2
2025-09-03 13:26:54.270,-508058,-560424,-560357,-531710,2,2,2,2
2025-09-03 13:26:54.297,-516215,-560406,-576652,-531688,2,2,2,2
2025-09-03 13:26:54.324,-516358,-560536,-560434,-531827,2,2,2,2
2025-09-03 13:26:54.352,-516330,-576888,-560378,-539914,2,2,2,2
2025-09-03 13:26:54.379,-508169,-560590,-560406,-531737,2,2,2,2
2025-09-03 13:26:54.407,-516605,-560520,-560632,-531719,2,2,2,2
2025-09-03 13:26:54.434,-516552,-560403,-576895,-531853,2,2,2,2
2025-09-03 13:26:54.462,-516367,-576947,-560637,-540155,2,2,2,2
2025-09-03 13:26:54.488,-508180,-560604,-560625,-531967,2,2,2,2
2025-09-03 13:26:54.516,-516633,-560870,-577017,-531991,2,2,2,2
2025-09-03 13:26:54.543,-516499,-560409,-560432,-531937,2,2,2,2
2025-09-03 13:26:54.571,-516372,-560534,-560355,-531735,2,2,2,2
2025-09-03 13:26:54.599,-516573,-560490,-576848,-531940,2,2,2,2
2025-09-03 13:26:54.626,-516600,-560674,-560500,-531959,2,2,2,2
2025-09-03 13:26:54.655,-516720,-577178,-560645,-540298,2,2,2,2
2025-09-03 13:26:54.682,-516630,-560766,-560872,-531998,2,2,2,2
2025-09-03 13:26:54.709,-516589,-560640,-560513,-531962,2,2,2,2
2025-09-03 13:26:54.736,-516586,-560662,-560583,-531950,2,2,2,2
2025-09-03 13:26:54.764,-516736,-560873,-560670,-532107,2,2,2,2
2025-09-03 13:26:54.792,-516826,-560893,-577097,-532121,2,2,2,2
2025-09-03 13:26:54.819,-516684,-560792,-577025,-532070,2,2,2,2
2025-09-03 13:26:54.847,-516854,-560752,-560787,-531971,2,2,2,2
2025-09-03 13:26:54.875,-508415,-560695,-560542,-531972,2,2,2,2
2025-09-03 13:26:54.902,-508409,-560684,-560541,-531975,2,2,2,2
2025-09-03 13:26:54.931,-516619,-560785,-560630,-532077,2,2,2,2
2025-09-03 13:26:54.958,-516395,-560647,-576788,-531859,2,2,2,2
2025-09-03 13:26:54.985,-516812,-561002,-577097,-532208,2,2,2,2
2025-09-03 13:26:55.012,-516847,-560852,-560792,-531980,2,2,2,2
2025-09-03 13:26:55.039,-516610,-560879,-576972,-532068,2,2,2,2
2025-09-03 13:26:55.068,-516720,-577300,-560663,-532117,2,2,2,2
2025-09-03 13:26:55.094,-508553,-560922,-560738,-532190,2,2,2,2
2025-09-03 13:26:55.121,-516761,-577405,-560783,-540409,2,2,2,2
2025-09-03 13:26:55.150,-516880,-561151,-560903,-532365,2,2,2,2
2025-09-03 13:26:55.175,-517000,-560947,-561017,-532477,2,2,2,2
2025-09-03 13:26:55.204,-516625,-560893,-560657,-532105,2,2,2,2
2025-09-03 13:26:55.232,-516842,-561037,-577212,-532328,2,2,2,2
2025-09-03 13:26:55.259,-516761,-577344,-560800,-532327,2,2,2,2
2025-09-03 13:26:55.286,-517120,-561132,-560910,-532365,2,2,2,2
2025-09-03 13:26:55.312,-516999,-569454,-561102,-548891,2,2,2,2
2025-09-03 13:26:55.340,-516989,-577652,-561032,-540680,2,2,2,2
2025-09-03 13:26:55.367,-517104,-577773,-561166,-532621,2,2,2,2
2025-09-03 13:26:55.394,-516961,-577590,-561032,-540664,2,2,2,2
2025-09-03 13:26:55.421,-516893,-569457,-561107,-548884,2,2,2,2
2025-09-03 13:26:55.448,-516996,-561347,-561126,-532550,2,2,2,2
2025-09-03 13:26:55.476,-517007,-561287,-577520,-548991,2,2,2,2
2025-09-03 13:26:55.502,-517132,-569594,-561177,-549115,2,2,2,2
2025-09-03 13:26:55.529,-517356,-561372,-561155,-532638,2,2,2,2
2025-09-03 13:26:55.556,-517139,-561159,-577649,-548886,2,2,2,2
2025-09-03 13:26:55.583,-517127,-561391,-561186,-548886,2,2,2,2
2025-09-03 13:26:55.610,-517098,-561380,-569354,-548867,2,2,2,2
2025-09-03 13:26:55.638,-517068,-561025,-561147,-532471,2,2,2,2
2025-09-03 13:26:55.665,-516907,-560923,-577437,-532366,2,2,2,2
2025-09-03 13:26:55.693,-516927,-561014,-577528,-548870,2,2,2,2
2025-09-03 13:26:55.720,-517113,-561147,-561002,-548924,2,2,2,2
2025-09-03 13:26:55.746,-516927,-561028,-577525,-548869,2,2,2,2
2025-09-03 13:26:55.773,-517104,-561407,-561178,-548964,2,2,2,2
2025-09-03 13:26:55.801,-517225,-561209,-561280,-532713,2,2,2,2
2025-09-03 13:26:55.828,-516979,-577725,-561046,-532724,2,2,2,2
2025-09-03 13:26:55.856,-517090,-561159,-561160,-548886,2,2,2,2
2025-09-03 13:26:55.883,-517008,-561153,-561141,-548895,2,2,2,2
2025-09-03 13:26:55.911,-516804,-561147,-577274,-532254,2,2,2,2
2025-09-03 13:26:55.939,-508700,-561094,-561029,-532425,2,2,2,2
2025-09-03 13:26:55.967,-517238,-569591,-561390,-549144,2,2,2,2
2025-09-03 13:26:55.993,-517646,-578173,-561794,-541424,2,2,2,2
2025-09-03 13:26:56.020,-518424,-562569,-578933,-550376,2,2,2,2
2025-09-03 13:26:56.047,-518943,-579472,-563086,-542737,2,2,2,2
2025-09-03 13:26:56.075,-519278,-563701,-571628,-551206,2,2,2,2
2025-09-03 13:26:56.102,-519709,-563865,-580253,-551698,2,2,2,2
2025-09-03 13:26:56.129,-519677,-563838,-572039,-551676,2,2,2,2
2025-09-03 13:26:56.156,-511750,-564180,-564196,-535611,2,2,2,2
2025-09-03 13:26:56.183,-520117,-564331,-572538,-552194,2,2,2,2
2025-09-03 13:26:56.210,-520191,-564458,-580859,-552326,2,2,2,2
2025-09-03 13:26:56.237,-520207,-564483,-564500,-552432,2,2,2,2
2025-09-03 13:26:56.266,-520423,-564623,-564457,-552388,2,2,2,2
2025-09-03 13:26:56.293,-520207,-564501,-564588,-536086,2,2,2,2
2025-09-03 13:26:56.320,-520178,-564479,-580675,-552208,2,2,2,2
2025-09-03 13:26:56.347,-520172,-564482,-572439,-552210,2,2,2,2
2025-09-03 13:26:56.373,-520299,-564619,-564460,-552417,2,2,2,2
2025-09-03 13:26:56.400,-511871,-564464,-564247,-535823,2,2,2,2
2025-09-03 13:26:56.428,-520053,-564468,-564233,-535859,2,2,2,2
2025-09-03 13:26:56.456,-520095,-564580,-564419,-552329,2,2,2,2
2025-09-03 13:26:56.483,-520133,-564330,-580749,-552337,2,2,2,2
2025-09-03 13:26:56.510,-519938,-580862,-564244,-535910,2,2,2,2
2025-09-03 13:26:56.538,-520156,-564384,-580617,-552220,2,2,2,2
2025-09-03 13:26:56.565,-519905,-572662,-564251,-552327,2,2,2,2
2025-09-03 13:26:56.592,-519681,-564272,-564092,-552191,2,2,2,2
2025-09-03 13:26:56.619,-519817,-580605,-563991,-535701,2,2,2,2
2025-09-03 13:26:56.646,-519936,-564359,-564184,-552301,2,2,2,2
2025-09-03 13:26:56.674,-519923,-564352,-580537,-552316,2,2,2,2
2025-09-03 13:26:56.702,-519700,-564217,-563986,-552186,2,2,2,2
2025-09-03 13:26:56.730,-519693,-564242,-564251,-552204,2,2,2,2
2025-09-03 13:26:56.758,-519693,-564252,-564328,-552225,2,2,2,2
2025-09-03 13:26:56.785,-511620,-564439,-564467,-536049,2,2,2,2
2025-09-03 13:26:56.812,-519705,-580736,-564379,-544160,2,2,2,2
2025-09-03 13:26:56.841,-519820,-564462,-564244,-536135,2,2,2,2
2025-09-03 13:26:56.867,-519902,-564249,-580732,-552419,2,2,2,2
2025-09-03 13:26:56.894,-511371,-564246,-564094,-536046,2,2,2,2
2025-09-03 13:26:56.920,-519669,-564105,-580588,-552302,2,2,2,2
2025-09-03 13:26:56.948,-519698,-564470,-580657,-552600,2,2,2,2
2025-09-03 13:26:56.974,-519602,-564358,-572398,-552244,2,2,2,2
2025-09-03 13:26:57.002,-519663,-580594,-563982,-536035,2,2,2,2
2025-09-03 13:26:57.030,-519650,-572428,-564009,-552429,2,2,2,2
2025-09-03 13:26:57.056,-519560,-580848,-564241,-552352,2,2,2,2
2025-09-03 13:26:57.084,-519464,-564453,-580614,-552424,2,2,2,2
2025-09-03 13:26:57.112,-511388,-564272,-564105,-535861,2,2,2,2
2025-09-03 13:26:57.139,-519425,-564383,-564219,-552419,2,2,2,2
2025-09-03 13:26:57.167,-519582,-580749,-564200,-544227,2,2,2,2
2025-09-03 13:26:57.194,-519545,-564334,-580743,-552579,2,2,2,2
2025-09-03 13:26:57.221,-519676,-564474,-580665,-552468,2,2,2,2
2025-09-03 13:26:57.248,-519403,-564212,-580368,-552218,2,2,2,2
2025-09-03 13:26:57.275,-511217,-564215,-563988,-535846,2,2,2,2
2025-09-03 13:26:57.302,-519454,-564277,-564361,-536264,2,2,2,2
2025-09-03 13:26:57.330,-519681,-564496,-580739,-552600,2,2,2,2
2025-09-03 13:26:57.357,-511243,-564270,-564373,-536308,2,2,2,2
2025-09-03 13:26:57.383,-519638,-564234,-580667,-552603,2,2,2,2
2025-09-03 13:26:57.411,-519472,-564467,-580626,-552584,2,2,2,2
2025-09-03 13:26:57.438,-519325,-564280,-564127,-536064,2,2,2,2
2025-09-03 13:26:57.466,-519328,-564425,-564202,-536082,2,2,2,2
2025-09-03 13:26:57.498,-519280,-564254,-564107,-536056,2,2,2,2
2025-09-03 13:26:57.521,-519409,-564374,-564234,-552573,2,2,2,2
2025-09-03 13:26:57.548,-519522,-564230,-572546,-552697,2,2,2,2
2025-09-03 13:26:57.575,-519301,-580470,-564204,-544103,2,2,2,2
2025-09-03 13:26:57.602,-519152,-564204,-580464,-552423,2,2,2,2
2025-09-03 13:26:57.629,-519395,-564193,-580426,-552352,2,2,2,2
2025-09-03 13:26:57.657,-519447,-564331,-580811,-552566,2,2,2,2
2025-09-03 13:26:57.684,-519440,-580639,-564381,-536173,2,2,2,2
2025-09-03 13:26:57.711,-519193,-580663,-564232,-536294,2,2,2,2
2025-09-03 13:26:57.738,-519397,-564216,-580492,-552567,2,2,2,2
2025-09-03 13:26:57.765,-519431,-564335,-564227,-552697,2,2,2,2
2025-09-03 13:26:57.792,-519435,-564347,-564227,-552708,2,2,2,2
2025-09-03 13:26:57.818,-519203,-564357,-580639,-552470,2,2,2,2
2025-09-03 13:26:57.845,-518934,-564097,-580420,-552211,2,2,2,2
2025-09-03 13:26:57.873,-519127,-563989,-580584,-552348,2,2,2,2
2025-09-03 13:26:57.900,-519061,-572275,-563980,-552435,2,2,2,2
2025-09-03 13:26:57.927,-519059,-572282,-563982,-552459,2,2,2,2
2025-09-03 13:26:57.954,-518941,-580364,-564113,-535968,2,2,2,2
2025-09-03 13:26:57.982,-519060,-580582,-563988,-535921,2,2,2,2
2025-09-03 13:26:58.009,-519151,-563977,-580400,-552347,2,2,2,2
2025-09-03 13:26:58.036,-510735,-564032,-564119,-552444,2,2,2,2
2025-09-03 13:26:58.063,-519031,-563975,-563990,-535938,2,2,2,2
2025-09-03 13:26:58.091,-519050,-580381,-563986,-552328,2,2,2,2
2025-09-03 13:26:58.118,-518901,-563850,-580223,-552188,2,2,2,2
2025-09-03 13:26:58.145,-518928,-580591,-563939,-544097,2,2,2,2
2025-09-03 13:26:58.172,-518783,-563984,-571916,-552394,2,2,2,2
2025-09-03 13:26:58.199,-519046,-564005,-563989,-535992,2,2,2,2
2025-09-03 13:26:58.226,-518792,-564083,-572003,-552424,2,2,2,2
2025-09-03 13:26:58.255,-518916,-572401,-563927,-552221,2,2,2,2
2025-09-03 13:26:58.283,-518921,-564226,-580545,-552560,2,2,2,2
2025-09-03 13:26:58.309,-519052,-580502,-564067,-544235,2,2,2,2
2025-09-03 13:26:58.337,-519019,-572542,-563972,-552680,2,2,2,2
2025-09-03 13:26:58.364,-518866,-564209,-563765,-552198,2,2,2,2
2025-09-03 13:26:58.391,-518698,-564099,-580100,-552347,2,2,2,2
2025-09-03 13:26:58.419,-518876,-563947,-580196,-552197,2,2,2,2
2025-09-03 13:26:58.447,-518885,-563979,-563839,-535840,2,2,2,2
2025-09-03 13:26:58.475,-518931,-564273,-564122,-536201,2,2,2,2
2025-09-03 13:26:58.501,-510590,-564187,-563717,-552445,2,2,2,2
2025-09-03 13:26:58.528,-518868,-564202,-580160,-552194,2,2,2,2
2025-09-03 13:26:58.556,-518705,-564102,-580350,-552423,2,2,2,2
2025-09-03 13:26:58.583,-510584,-563914,-563717,-535760,2,2,2,2
2025-09-03 13:26:58.611,-518794,-572292,-563965,-552441,2,2,2,2
2025-09-03 13:26:58.638,-518676,-580146,-563596,-535699,2,2,2,2
2025-09-03 13:26:58.667,-518756,-563748,-563683,-535754,2,2,2,2
2025-09-03 13:26:58.695,-510576,-564009,-563861,-552428,2,2,2,2
2025-09-03 13:26:58.723,-518931,-563975,-580211,-552323,2,2,2,2
2025-09-03 13:26:58.751,-510611,-564166,-563961,-535869,2,2,2,2
2025-09-03 13:26:58.777,-518971,-564079,-580346,-552477,2,2,2,2
2025-09-03 13:26:58.805,-518798,-564100,-563732,-552308,2,2,2,2
2025-09-03 13:26:58.832,-510439,-563960,-563571,-552160,2,2,2,2
2025-09-03 13:26:58.859,-518906,-563979,-563847,-536053,2,2,2,2
2025-09-03 13:26:58.887,-519067,-580594,-564079,-544496,2,2,2,2
2025-09-03 13:26:58.915,-518904,-563976,-580235,-552460,2,2,2,2
2025-09-03 13:26:58.942,-510483,-564025,-563961,-535864,2,2,2,2
2025-09-03 13:26:58.969,-518700,-564106,-580105,-552351,2,2,2,2
2025-09-03 13:26:58.996,-518639,-580110,-563615,-544113,2,2,2,2
2025-09-03 13:26:59.022,-518902,-563964,-580226,-552292,2,2,2,2
2025-09-03 13:26:59.048,-510579,-563768,-563712,-536050,2,2,2,2
2025-09-03 13:26:59.076,-518804,-580319,-563821,-535909,2,2,2,2
2025-09-03 13:26:59.103,-518873,-563947,-580211,-552304,2,2,2,2
2025-09-03 13:26:59.130,-518539,-563862,-571775,-552244,2,2,2,2
2025-09-03 13:26:59.158,-518655,-563809,-563458,-552177,2,2,2,2
2025-09-03 13:26:59.185,-518646,-563716,-563706,-536048,2,2,2,2
2025-09-03 13:26:59.212,-518889,-563964,-563950,-552426,2,2,2,2
2025-09-03 13:26:59.240,-518649,-563734,-563714,-552444,2,2,2,2
2025-09-03 13:26:59.268,-518451,-563860,-579976,-552329,2,2,2,2
2025-09-03 13:26:59.295,-518633,-563733,-580094,-552202,2,2,2,2
2025-09-03 13:26:59.323,-518644,-572010,-563479,-552217,2,2,2,2
2025-09-03 13:26:59.350,-518401,-563824,-579906,-552290,2,2,2,2
2025-09-03 13:26:59.378,-510309,-563928,-563604,-552398,2,2,2,2
2025-09-03 13:26:59.405,-518554,-563745,-563728,-535824,2,2,2,2
2025-09-03 13:26:59.433,-518560,-563748,-563476,-535824,2,2,2,2
2025-09-03 13:26:59.460,-518759,-563963,-563945,-552423,2,2,2,2
2025-09-03 13:26:59.488,-518719,-563988,-580106,-552445,2,2,2,2
2025-09-03 13:26:59.514,-518428,-580304,-563683,-535961,2,2,2,2
2025-09-03 13:26:59.541,-518413,-563937,-563610,-552389,2,2,2,2
2025-09-03 13:26:59.569,-518646,-563937,-580022,-552299,2,2,2,2
2025-09-03 13:26:59.597,-518430,-563953,-563709,-552424,2,2,2,2
2025-09-03 13:26:59.625,-518458,-563813,-580148,-552221,2,2,2,2
2025-09-03 13:26:59.652,-518406,-563713,-563474,-552179,2,2,2,2
2025-09-03 13:26:59.679,-518113,-579765,-563447,-543713,2,2,2,2
2025-09-03 13:26:59.707,-518361,-563682,-579817,-552096,2,2,2,2
2025-09-03 13:26:59.735,-518393,-563458,-579851,-551941,2,2,2,2
2025-09-03 13:26:59.762,-518157,-571665,-563235,-552033,2,2,2,2
2025-09-03 13:26:59.790,-518285,-563598,-571622,-552159,2,2,2,2
2025-09-03 13:26:59.817,-510104,-563661,-563432,-535770,2,2,2,2
2025-09-03 13:26:59.844,-518140,-579839,-563297,-535575,2,2,2,2
2025-09-03 13:26:59.872,-518136,-579828,-563306,-543491,2,2,2,2
2025-09-03 13:26:59.900,-517956,-563310,-579474,-551791,2,2,2,2
2025-09-03 13:26:59.928,-518046,-563440,-563225,-535522,2,2,2,2
2025-09-03 13:26:59.956,-518132,-563441,-563226,-535541,2,2,2,2
2025-09-03 13:26:59.982,-518241,-579942,-563334,-543849,2,2,2,2
2025-09-03 13:27:00.009,-518100,-563351,-579589,-551917,2,2,2,2
2025-09-03 13:27:00.036,-517897,-563214,-579781,-551796,2,2,2,2
2025-09-03 13:27:00.063,-518081,-563327,-579817,-551836,2,2,2,2
2025-09-03 13:27:00.090,-518252,-579948,-563347,-543859,2,2,2,2
2025-09-03 13:27:00.118,-518264,-571762,-563437,-552079,2,2,2,2
2025-09-03 13:27:00.146,-517999,-571498,-563426,-551816,2,2,2,2
2025-09-03 13:27:00.173,-517939,-563312,-579817,-551818,2,2,2,2
2025-09-03 13:27:00.199,-518082,-563327,-579585,-551838,2,2,2,2
2025-09-03 13:27:00.227,-518015,-563243,-563197,-535494,2,2,2,2
2025-09-03 13:27:00.254,-517910,-563213,-579809,-551812,2,2,2,2
2025-09-03 13:27:00.282,-518119,-563443,-563331,-551716,2,2,2,2
2025-09-03 13:27:00.309,-518017,-571533,-563247,-551693,2,2,2,2
2025-09-03 13:27:00.335,-518124,-563448,-579730,-551789,2,2,2,2
2025-09-03 13:27:00.363,-517889,-563220,-563433,-535454,2,2,2,2
2025-09-03 13:27:00.390,-518143,-579593,-563359,-535438,2,2,2,2
2025-09-03 13:27:00.417,-518135,-571647,-563422,-551833,2,2,2,2
2025-09-03 13:27:00.446,-517773,-563095,-571264,-551724,2,2,2,2
2025-09-03 13:27:00.473,-509706,-563238,-563198,-535540,2,2,2,2
2025-09-03 13:27:00.500,-518008,-563402,-563297,-535326,2,2,2,2
2025-09-03 13:27:00.528,-517835,-563202,-579559,-551906,2,2,2,2
2025-09-03 13:27:00.555,-517990,-579693,-563223,-543512,2,2,2,2
2025-09-03 13:27:00.582,-518029,-563425,-563257,-551814,2,2,2,2
2025-09-03 13:27:00.610,-509553,-563149,-563046,-535336,2,2,2,2
2025-09-03 13:27:00.636,-509695,-562969,-563189,-535284,2,2,2,2
2025-09-03 13:27:00.663,-518022,-563432,-563318,-551724,2,2,2,2
2025-09-03 13:27:00.690,-517647,-563092,-571142,-551687,2,2,2,2
2025-09-03 13:27:00.717,-517759,-579345,-563084,-535165,2,2,2,2
2025-09-03 13:27:00.743,-517766,-563048,-563145,-551542,2,2,2,2
2025-09-03 13:27:00.771,-517640,-579555,-562959,-551695,2,2,2,2
2025-09-03 13:27:00.797,-517878,-563097,-579334,-551678,2,2,2,2
2025-09-03 13:27:00.824,-509687,-563432,-563207,-535543,2,2,2,2
2025-09-03 13:27:00.852,-509452,-563192,-562972,-535310,2,2,2,2
2025-09-03 13:27:00.879,-517867,-579561,-562945,-543475,2,2,2,2
2025-09-03 13:27:00.908,-517874,-563186,-571149,-551675,2,2,2,2
2025-09-03 13:27:00.935,-517633,-579332,-562962,-535058,2,2,2,2
2025-09-03 13:27:00.963,-517569,-563171,-579331,-551678,2,2,2,2
2025-09-03 13:27:00.990,-517645,-562967,-562967,-551449,2,2,2,2
2025-09-03 13:27:01.018,-509283,-562980,-562814,-535243,2,2,2,2
2025-09-03 13:27:01.044,-517612,-579331,-562957,-535058,2,2,2,2
2025-09-03 13:27:01.072,-517658,-579707,-563067,-543606,2,2,2,2
2025-09-03 13:27:01.100,-517662,-579444,-563066,-543345,2,2,2,2
2025-09-03 13:27:01.127,-517730,-579385,-563073,-535143,2,2,2,2
2025-09-03 13:27:01.154,-517428,-563076,-579216,-551542,2,2,2,2
2025-09-03 13:27:01.181,-517626,-562951,-579126,-551428,2,2,2,2
2025-09-03 13:27:01.208,-517505,-563072,-571007,-551479,2,2,2,2
2025-09-03 13:27:01.235,-517773,-563092,-571279,-551618,2,2,2,2
2025-09-03 13:27:01.262,-517676,-563055,-579407,-551535,2,2,2,2
2025-09-03 13:27:01.289,-517843,-563169,-579563,-551582,2,2,2,2
2025-09-03 13:27:01.316,-517520,-563101,-562923,-551649,2,2,2,2
2025-09-03 13:27:01.343,-509303,-562892,-562822,-534998,2,2,2,2
2025-09-03 13:27:01.370,-517378,-562965,-562718,-551522,2,2,2,2
2025-09-03 13:27:01.397,-517603,-562917,-562935,-535042,2,2,2,2
2025-09-03 13:27:01.424,-517533,-562848,-562932,-551430,2,2,2,2
2025-09-03 13:27:01.451,-517511,-562834,-562919,-551411,2,2,2,2
2025-09-03 13:27:01.478,-517145,-570994,-562632,-551322,2,2,2,2
2025-09-03 13:27:01.506,-517378,-562708,-579181,-551286,2,2,2,2
2025-09-03 13:27:01.533,-517438,-562806,-571012,-551390,2,2,2,2
2025-09-03 13:27:01.561,-517405,-562747,-562834,-534979,2,2,2,2
2025-09-03 13:27:01.590,-517629,-563044,-579189,-551552,2,2,2,2
2025-09-03 13:27:01.617,-517373,-562709,-579172,-551285,2,2,2,2
2025-09-03 13:27:01.645,-517413,-562819,-579210,-551326,2,2,2,2
2025-09-03 13:27:01.672,-517477,-579210,-562826,-543210,2,2,2,2
2025-09-03 13:27:01.700,-517255,-579260,-562657,-543225,2,2,2,2
2025-09-03 13:27:01.727,-517223,-562888,-562557,-534975,2,2,2,2
2025-09-03 13:27:01.755,-517429,-562824,-579208,-551316,2,2,2,2
2025-09-03 13:27:01.783,-517407,-562807,-579203,-551310,2,2,2,2
2025-09-03 13:27:01.810,-517351,-562697,-562451,-534852,2,2,2,2
2025-09-03 13:27:01.838,-509046,-562649,-562587,-534734,2,2,2,2
2025-09-03 13:27:01.865,-517141,-562464,-578867,-551043,2,2,2,2
2025-09-03 13:27:01.892,-517357,-570871,-562444,-551182,2,2,2,2
2025-09-03 13:27:01.919,-517378,-562697,-562786,-534902,2,2,2,2
2025-09-03 13:27:01.947,-517485,-562806,-562814,-551382,2,2,2,2
2025-09-03 13:27:01.974,-517404,-562714,-562739,-551307,2,2,2,2
2025-09-03 13:27:02.000,-517500,-562748,-562816,-534939,2,2,2,2
2025-09-03 13:27:02.028,-509315,-562882,-562820,-534983,2,2,2,2
2025-09-03 13:27:02.056,-517333,-562844,-579054,-551416,2,2,2,2
2025-09-03 13:27:02.083,-517516,-562907,-562916,-534939,2,2,2,2
2025-09-03 13:27:02.110,-517510,-563066,-571030,-551634,2,2,2,2
2025-09-03 13:27:02.137,-517171,-562712,-578936,-551279,2,2,2,2
2025-09-03 13:27:02.165,-517407,-562700,-579104,-551185,2,2,2,2
2025-09-03 13:27:02.192,-517399,-579320,-562715,-542992,2,2,2,2
2025-09-03 13:27:02.219,-517221,-570885,-562474,-551191,2,2,2,2
2025-09-03 13:27:02.247,-517127,-562589,-562423,-551149,2,2,2,2
2025-09-03 13:27:02.273,-509087,-562485,-562565,-534663,2,2,2,2
2025-09-03 13:27:02.301,-517241,-562447,-562448,-534535,2,2,2,2
2025-09-03 13:27:02.328,-517123,-570780,-562676,-551137,2,2,2,2
2025-09-03 13:27:02.356,-517330,-562457,-578936,-550942,2,2,2,2
2025-09-03 13:27:02.382,-509057,-562449,-562455,-534534,2,2,2,2
2025-09-03 13:27:02.409,-509045,-562677,-562441,-534770,2,2,2,2
2025-09-03 13:27:02.436,-517139,-562659,-562681,-551048,2,2,2,2
2025-09-03 13:27:02.464,-517177,-562663,-570877,-551126,2,2,2,2
2025-09-03 13:27:02.490,-517367,-562833,-562635,-551268,2,2,2,2
2025-09-03 13:27:02.518,-517127,-579067,-562419,-534666,2,2,2,2
2025-09-03 13:27:02.545,-517266,-562634,-562562,-534555,2,2,2,2
2025-09-03 13:27:02.572,-517140,-562714,-562448,-551128,2,2,2,2
2025-09-03 13:27:02.599,-517236,-562540,-578924,-551154,2,2,2,2
2025-09-03 13:27:02.626,-517309,-562845,-578959,-551207,2,2,2,2
2025-09-03 13:27:02.653,-517197,-562556,-570741,-550924,2,2,2,2
2025-09-03 13:27:02.681,-517279,-562920,-562580,-551212,2,2,2,2
2025-09-03 13:27:02.708,-517163,-562799,-578872,-551170,2,2,2,2
2025-09-03 13:27:02.735,-517375,-562922,-579016,-551303,2,2,2,2
2025-09-03 13:27:02.763,-517349,-579279,-562586,-534914,2,2,2,2
2025-09-03 13:27:02.790,-509213,-562700,-562683,-535025,2,2,2,2
2025-09-03 13:27:02.817,-517345,-562818,-562557,-551208,2,2,2,2
2025-09-03 13:27:02.845,-517338,-562546,-562486,-551009,2,2,2,2
2025-09-03 13:27:02.872,-517269,-562806,-562489,-551277,2,2,2,2
2025-09-03 13:27:02.900,-517145,-562673,-579059,-551161,2,2,2,2
2025-09-03 13:27:02.927,-517228,-579060,-562687,-534773,2,2,2,2
2025-09-03 13:27:02.954,-517497,-579317,-562700,-535030,2,2,2,2
2025-09-03 13:27:02.980,-517253,-579067,-562449,-542961,2,2,2,2
2025-09-03 13:27:03.006,-517218,-562578,-570869,-551121,2,2,2,2
2025-09-03 13:27:03.034,-509169,-562467,-562570,-534557,2,2,2,2
2025-09-03 13:27:03.060,-517277,-570643,-562483,-550932,2,2,2,2
2025-09-03 13:27:03.087,-517325,-562534,-570749,-550938,2,2,2,2
2025-09-03 13:27:03.114,-508931,-562490,-562334,-534573,2,2,2,2
2025-09-03 13:27:03.141,-517151,-562567,-578720,-551021,2,2,2,2
2025-09-03 13:27:03.170,-516869,-562299,-578717,-550757,2,2,2,2
2025-09-03 13:27:03.196,-517099,-562277,-578690,-550684,2,2,2,2
2025-09-03 13:27:03.224,-517225,-562587,-562404,-551034,2,2,2,2
2025-09-03 13:27:03.252,-517012,-562465,-562289,-534530,2,2,2,2
2025-09-03 13:27:03.279,-517090,-562532,-562216,-550913,2,2,2,2
2025-09-03 13:27:03.306,-517317,-562701,-578832,-551150,2,2,2,2
2025-09-03 13:27:03.334,-517134,-562662,-562394,-551038,2,2,2,2
2025-09-03 13:27:03.361,-516908,-562442,-578813,-550805,2,2,2,2
2025-09-03 13:27:03.389,-517327,-562542,-578881,-551147,2,2,2,2
2025-09-03 13:27:03.416,-517272,-579023,-562550,-534532,2,2,2,2
2025-09-03 13:27:03.443,-517114,-562414,-562326,-550697,2,2,2,2
2025-09-03 13:27:03.470,-517176,-562545,-578832,-551070,2,2,2,2
2025-09-03 13:27:03.497,-517325,-562569,-578920,-551143,2,2,2,2
2025-09-03 13:27:03.525,-517365,-579046,-562569,-542730,2,2,2,2
2025-09-03 13:27:03.552,-517240,-562530,-562449,-551134,2,2,2,2
2025-09-03 13:27:03.579,-517346,-562662,-578955,-550931,2,2,2,2
2025-09-03 13:27:03.606,-517121,-579078,-562664,-534641,2,2,2,2
2025-09-03 13:27:03.634,-517253,-578960,-562541,-534754,2,2,2,2
2025-09-03 13:27:03.661,-509047,-562895,-562458,-534747,2,2,2,2
2025-09-03 13:27:03.688,-517221,-562567,-562431,-551057,2,2,2,2
2025-09-03 13:27:03.716,-517123,-562543,-570596,-550967,2,2,2,2
2025-09-03 13:27:03.742,-516999,-562671,-562206,-550904,2,2,2,2
2025-09-03 13:27:03.770,-517256,-562679,-578927,-551149,2,2,2,2
2025-09-03 13:27:03.798,-517272,-562710,-562553,-534534,2,2,2,2
2025-09-03 13:27:03.825,-517129,-562561,-578712,-551026,2,2,2,2
2025-09-03 13:27:03.852,-517280,-579099,-562563,-534554,2,2,2,2
2025-09-03 13:27:03.879,-517005,-562437,-562207,-534522,2,2,2,2
2025-09-03 13:27:03.905,-517219,-562652,-562428,-534680,2,2,2,2
2025-09-03 13:27:03.932,-517050,-562436,-570474,-550915,2,2,2,2
2025-09-03 13:27:03.958,-517142,-571019,-562670,-551044,2,2,2,2
2025-09-03 13:27:03.986,-517317,-562584,-578820,-551063,2,2,2,2
2025-09-03 13:27:04.014,-517254,-562571,-570620,-551124,2,2,2,2
2025-09-03 13:27:04.041,-509179,-562691,-562562,-534529,2,2,2,2
2025-09-03 13:27:04.068,-517271,-578993,-562456,-542947,2,2,2,2
2025-09-03 13:27:04.096,-517394,-562695,-570748,-551182,2,2,2,2
2025-09-03 13:27:04.123,-517322,-562808,-579014,-551044,2,2,2,2
2025-09-03 13:27:04.151,-517407,-562696,-578938,-551176,2,2,2,2
2025-09-03 13:27:04.178,-517225,-570881,-562494,-550928,2,2,2,2
2025-09-03 13:27:04.207,-517489,-562705,-570734,-551171,2,2,2,2
2025-09-03 13:27:04.234,-517415,-562920,-578885,-551146,2,2,2,2
2025-09-03 13:27:04.261,-517359,-562803,-579047,-551048,2,2,2,2
2025-09-03 13:27:04.288,-517384,-562835,-579068,-551313,2,2,2,2
2025-09-03 13:27:04.315,-517520,-579082,-562558,-542992,2,2,2,2
2025-09-03 13:27:04.343,-517620,-562715,-579029,-551273,2,2,2,2
2025-09-03 13:27:04.369,-517584,-562929,-579117,-551418,2,2,2,2
2025-09-03 13:27:04.397,-517634,-562975,-562843,-551217,2,2,2,2
2025-09-03 13:27:04.425,-517523,-562848,-562711,-551409,2,2,2,2
2025-09-03 13:27:04.453,-517615,-562929,-562538,-534793,2,2,2,2
2025-09-03 13:27:04.481,-517625,-571033,-562730,-551417,2,2,2,2
2025-09-03 13:27:04.507,-517648,-571128,-562882,-551266,2,2,2,2
2025-09-03 13:27:04.534,-517652,-571034,-562739,-551178,2,2,2,2
2025-09-03 13:27:04.560,-517565,-562718,-570873,-551371,2,2,2,2
2025-09-03 13:27:04.588,-517622,-562805,-579074,-551323,2,2,2,2
2025-09-03 13:27:04.616,-517647,-563070,-570886,-551394,2,2,2,2
2025-09-03 13:27:04.643,-517830,-563193,-579202,-551450,2,2,2,2
2025-09-03 13:27:04.671,-517852,-562953,-562893,-551280,2,2,2,2
2025-09-03 13:27:04.698,-517886,-562973,-579222,-551298,2,2,2,2
2025-09-03 13:27:04.726,-517862,-562939,-579197,-551271,2,2,2,2
2025-09-03 13:27:04.753,-517639,-579077,-562658,-534896,2,2,2,2
2025-09-03 13:27:04.781,-517682,-562949,-579297,-551269,2,2,2,2
2025-09-03 13:27:04.808,-517753,-579400,-562697,-534924,2,2,2,2
2025-09-03 13:27:04.836,-517782,-562810,-562716,-551389,2,2,2,2
2025-09-03 13:27:04.863,-517886,-562845,-579194,-551413,2,2,2,2
2025-09-03 13:27:04.891,-509584,-562970,-562698,-551362,2,2,2,2
2025-09-03 13:27:04.919,-509685,-562735,-562786,-551400,2,2,2,2
2025-09-03 13:27:04.946,-517770,-562925,-562660,-551292,2,2,2,2
2025-09-03 13:27:04.973,-518138,-562959,-579327,-551579,2,2,2,2
2025-09-03 13:27:05.000,-517860,-562941,-562921,-534918,2,2,2,2
2025-09-03 13:27:05.029,-517895,-579333,-562942,-543123,2,2,2,2
2025-09-03 13:27:05.056,-518010,-571252,-562733,-551429,2,2,2,2
2025-09-03 13:27:05.083,-509665,-562882,-562839,-534813,2,2,2,2
2025-09-03 13:27:05.111,-517652,-579274,-562670,-543107,2,2,2,2
2025-09-03 13:27:05.138,-509572,-562719,-562720,-535028,2,2,2,2
2025-09-03 13:27:05.166,-517987,-579309,-562941,-551287,2,2,2,2
2025-09-03 13:27:05.193,-517778,-570903,-562719,-551412,2,2,2,2
2025-09-03 13:27:05.220,-517876,-562791,-579200,-551183,2,2,2,2
2025-09-03 13:27:05.246,-517896,-562820,-562897,-551185,2,2,2,2
2025-09-03 13:27:05.273,-517696,-562939,-579075,-551317,2,2,2,2
2025-09-03 13:27:05.301,-517826,-562711,-570986,-551414,2,2,2,2
2025-09-03 13:27:05.328,-517903,-563054,-571031,-551452,2,2,2,2
2025-09-03 13:27:05.356,-517657,-579199,-562585,-543073,2,2,2,2
2025-09-03 13:27:05.383,-517635,-562788,-578957,-551188,2,2,2,2
2025-09-03 13:27:05.410,-517869,-562696,-562540,-551161,2,2,2,2
2025-09-03 13:27:05.438,-517637,-562699,-562479,-551183,2,2,2,2
2025-09-03 13:27:05.466,-517603,-570866,-562469,-551159,2,2,2,2
2025-09-03 13:27:05.494,-517885,-579071,-562532,-542976,2,2,2,2
2025-09-03 13:27:05.521,-509594,-562915,-562689,-551406,2,2,2,2
2025-09-03 13:27:05.548,-517887,-562690,-562537,-534795,2,2,2,2
2025-09-03 13:27:05.574,-517772,-562628,-562663,-534676,2,2,2,2
2025-09-03 13:27:05.602,-509666,-562640,-562667,-551149,2,2,2,2
2025-09-03 13:27:05.630,-517648,-579062,-562531,-543002,2,2,2,2
2025-09-03 13:27:05.658,-517742,-579090,-562556,-543082,2,2,2,2
2025-09-03 13:27:05.684,-509588,-562487,-562659,-534744,2,2,2,2
2025-09-03 13:27:05.711,-517871,-562556,-562680,-551148,2,2,2,2
2025-09-03 13:27:05.739,-517732,-562678,-562464,-551275,2,2,2,2
2025-09-03 13:27:05.766,-517685,-562683,-562485,-551293,2,2,2,2
2025-09-03 13:27:05.794,-517836,-562546,-570783,-551147,2,2,2,2
2025-09-03 13:27:05.820,-517875,-562799,-562656,-551415,2,2,2,2
2025-09-03 13:27:05.848,-517903,-579128,-562663,-535029,2,2,2,2
2025-09-03 13:27:05.875,-517657,-562579,-562439,-551177,2,2,2,2
2025-09-03 13:27:05.903,-517759,-562683,-570655,-550954,2,2,2,2
2025-09-03 13:27:05.929,-517738,-579056,-562439,-534536,2,2,2,2
2025-09-03 13:27:05.957,-517734,-562667,-570625,-550917,2,2,2,2
2025-09-03 13:27:05.983,-517750,-562433,-570637,-550924,2,2,2,2
2025-09-03 13:27:06.010,-517878,-579194,-562560,-543112,2,2,2,2
2025-09-03 13:27:06.037,-517702,-562588,-570858,-551131,2,2,2,2
2025-09-03 13:27:06.065,-517729,-579042,-562681,-542946,2,2,2,2
2025-09-03 13:27:06.092,-517734,-562585,-562662,-551140,2,2,2,2
2025-09-03 13:27:06.118,-517885,-562809,-562562,-551227,2,2,2,2
2025-09-03 13:27:06.145,-509460,-562633,-562581,-534739,2,2,2,2
2025-09-03 13:27:06.171,-517862,-562458,-578934,-551009,2,2,2,2
2025-09-03 13:27:06.199,-517664,-579007,-562678,-542951,2,2,2,2
2025-09-03 13:27:06.226,-509458,-562639,-562666,-551126,2,2,2,2
2025-09-03 13:27:06.254,-517862,-562713,-562495,-551265,2,2,2,2
2025-09-03 13:27:06.280,-517878,-562712,-562564,-551194,2,2,2,2
2025-09-03 13:27:06.308,-517901,-562789,-579000,-551285,2,2,2,2
2025-09-03 13:27:06.335,-517890,-562794,-579024,-551276,2,2,2,2
2025-09-03 13:27:06.363,-518076,-562689,-570988,-551417,2,2,2,2
2025-09-03 13:27:06.390,-509666,-562709,-562556,-551193,2,2,2,2
2025-09-03 13:27:06.417,-509590,-562690,-562535,-534780,2,2,2,2
2025-09-03 13:27:06.444,-517896,-562800,-578950,-551206,2,2,2,2
2025-09-03 13:27:06.471,-517891,-570994,-562627,-551200,2,2,2,2
2025-09-03 13:27:06.498,-509580,-562694,-562449,-534760,2,2,2,2
2025-09-03 13:27:06.525,-517861,-562720,-562460,-551164,2,2,2,2
2025-09-03 13:27:06.553,-517776,-579060,-562450,-534670,2,2,2,2
2025-09-03 13:27:06.579,-517835,-562684,-578866,-551139,2,2,2,2
2025-09-03 13:27:06.607,-517904,-562815,-579287,-551279,2,2,2,2
2025-09-03 13:27:06.635,-517985,-571014,-562671,-551286,2,2,2,2
2025-09-03 13:27:06.662,-518009,-579252,-562943,-543106,2,2,2,2
2025-09-03 13:27:06.690,-517883,-562453,-562567,-534545,2,2,2,2
2025-09-03 13:27:06.717,-517635,-562442,-570741,-550917,2,2,2,2
2025-09-03 13:27:06.744,-517832,-562684,-570729,-551158,2,2,2,2
2025-09-03 13:27:06.771,-517785,-579060,-562463,-534754,2,2,2,2
2025-09-03 13:27:06.798,-517654,-562493,-562586,-534594,2,2,2,2
2025-09-03 13:27:06.825,-517939,-562833,-579316,-551287,2,2,2,2
2025-09-03 13:27:06.852,-517647,-562532,-570774,-550938,2,2,2,2
2025-09-03 13:27:06.880,-517861,-570874,-562467,-551152,2,2,2,2
2025-09-03 13:27:06.907,-517844,-562659,-578891,-551156,2,2,2,2
2025-09-03 13:27:06.934,-517791,-562667,-562543,-534764,2,2,2,2
2025-09-03 13:27:06.961,-517669,-562534,-578865,-551041,2,2,2,2
2025-09-03 13:27:06.989,-517826,-562664,-570773,-551171,2,2,2,2
2025-09-03 13:27:07.015,-517775,-562572,-570764,-551148,2,2,2,2
2025-09-03 13:27:07.042,-517756,-578873,-562565,-534755,2,2,2,2
2025-09-03 13:27:07.070,-517744,-562468,-562544,-534707,2,2,2,2
2025-09-03 13:27:07.097,-517610,-562323,-562411,-550933,2,2,2,2
2025-09-03 13:27:07.124,-517503,-578639,-562316,-542695,2,2,2,2
2025-09-03 13:27:07.152,-517637,-562404,-578809,-550943,2,2,2,2
2025-09-03 13:27:07.180,-517745,-562454,-562478,-551138,2,2,2,2
2025-09-03 13:27:07.207,-517612,-562328,-578812,-550943,2,2,2,2
2025-09-03 13:27:07.235,-517516,-578608,-562334,-534534,2,2,2,2
2025-09-03 13:27:07.262,-517596,-562331,-578824,-551009,2,2,2,2
2025-09-03 13:27:07.289,-517652,-562430,-578924,-551059,2,2,2,2
2025-09-03 13:27:07.315,-517653,-562442,-562567,-551137,2,2,2,2
2025-09-03 13:27:07.342,-517583,-562313,-578824,-550943,2,2,2,2
2025-09-03 13:27:07.369,-517593,-562333,-578841,-551023,2,2,2,2
2025-09-03 13:27:07.395,-517660,-562454,-578960,-551157,2,2,2,2
2025-09-03 13:27:07.424,-517625,-578810,-562292,-542601,2,2,2,2
2025-09-03 13:27:07.452,-517397,-562223,-562411,-534522,2,2,2,2
2025-09-03 13:27:07.479,-517529,-578788,-562535,-542835,2,2,2,2
2025-09-03 13:27:07.506,-517395,-570465,-562390,-550886,2,2,2,2
2025-09-03 13:27:07.534,-517407,-562288,-562421,-550903,2,2,2,2
2025-09-03 13:27:07.561,-517587,-562312,-578913,-550937,2,2,2,2
2025-09-03 13:27:07.589,-517616,-562409,-562292,-550712,2,2,2,2
2025-09-03 13:27:07.617,-517634,-578766,-562554,-542871,2,2,2,2
2025-09-03 13:27:07.644,-517670,-562450,-578999,-551154,2,2,2,2
2025-09-03 13:27:07.671,-517604,-562308,-562448,-551017,2,2,2,2
2025-09-03 13:27:07.699,-517638,-578790,-562543,-551064,2,2,2,2
2025-09-03 13:27:07.727,-509463,-562439,-562552,-534749,2,2,2,2
2025-09-03 13:27:07.754,-517787,-562495,-562673,-534636,2,2,2,2
2025-09-03 13:27:07.782,-517528,-578678,-562417,-542739,2,2,2,2
2025-09-03 13:27:07.810,-517863,-578920,-562588,-542994,2,2,2,2
2025-09-03 13:27:07.838,-518144,-579270,-562937,-534898,2,2,2,2
2025-09-03 13:27:07.865,-517653,-578959,-562439,-534653,2,2,2,2
2025-09-03 13:27:07.892,-509810,-562676,-562712,-534980,2,2,2,2
2025-09-03 13:27:07.919,-517784,-578874,-562555,-542963,2,2,2,2
2025-09-03 13:27:07.946,-517893,-562552,-578963,-551175,2,2,2,2
2025-09-03 13:27:07.975,-518032,-562695,-579186,-551325,2,2,2,2
2025-09-03 13:27:08.002,-517927,-562837,-579308,-551281,2,2,2,2
2025-09-03 13:27:08.029,-517987,-562580,-562665,-551276,2,2,2,2
2025-09-03 13:27:08.056,-517755,-570849,-562675,-551039,2,2,2,2
2025-09-03 13:27:08.085,-517957,-562835,-571038,-551211,2,2,2,2
2025-09-03 13:27:08.113,-518117,-562712,-579099,-551399,2,2,2,2
2025-09-03 13:27:08.141,-509699,-562724,-562790,-535028,2,2,2,2
2025-09-03 13:27:08.168,-517928,-562816,-562748,-551190,2,2,2,2
2025-09-03 13:27:08.195,-518065,-562930,-571035,-551232,2,2,2,2
2025-09-03 13:27:08.222,-518147,-570991,-562708,-551414,2,2,2,2
2025-09-03 13:27:08.249,-517943,-562931,-579211,-551290,2,2,2,2
2025-09-03 13:27:08.275,-518293,-562948,-562846,-535217,2,2,2,2
2025-09-03 13:27:08.303,-518263,-562923,-562813,-551479,2,2,2,2
2025-09-03 13:27:08.331,-518142,-562794,-579076,-551415,2,2,2,2
2025-09-03 13:27:08.358,-518089,-562929,-579261,-551305,2,2,2,2
2025-09-03 13:27:08.384,-518091,-562918,-579255,-551302,2,2,2,2
2025-09-03 13:27:08.411,-518273,-579261,-562814,-543348,2,2,2,2
2025-09-03 13:27:08.439,-518081,-562838,-579126,-551287,2,2,2,2
2025-09-03 13:27:08.467,-518163,-562802,-562713,-551435,2,2,2,2
2025-09-03 13:27:08.494,-518011,-579001,-562561,-543003,2,2,2,2
2025-09-03 13:27:08.521,-509714,-562732,-562705,-535033,2,2,2,2
2025-09-03 13:27:08.550,-509806,-562893,-562802,-551193,2,2,2,2
2025-09-03 13:27:08.576,-518206,-562848,-562890,-551526,2,2,2,2
2025-09-03 13:27:08.604,-518152,-579106,-562707,-535021,2,2,2,2
2025-09-03 13:27:08.631,-518285,-579253,-562827,-543261,2,2,2,2
2025-09-03 13:27:08.659,-518241,-579200,-562711,-543236,2,2,2,2
2025-09-03 13:27:08.687,-518280,-562848,-562731,-551439,2,2,2,2
2025-09-03 13:27:08.714,-518264,-579197,-562698,-535041,2,2,2,2
2025-09-03 13:27:08.743,-518133,-562673,-578957,-551276,2,2,2,2
2025-09-03 13:27:08.770,-509817,-562746,-562709,-535035,2,2,2,2
2025-09-03 13:27:08.798,-509707,-562713,-562674,-534991,2,2,2,2
2025-09-03 13:27:08.826,-517891,-562686,-562636,-551012,2,2,2,2
2025-09-03 13:27:08.853,-517909,-562703,-562592,-551212,2,2,2,2
2025-09-03 13:27:08.881,-518140,-571126,-562750,-551171,2,2,2,2
2025-09-03 13:27:08.908,-517889,-579073,-562557,-534797,2,2,2,2
2025-09-03 13:27:08.936,-518020,-562906,-562692,-534964,2,2,2,2
2025-09-03 13:27:08.964,-518135,-562704,-562825,-534796,2,2,2,2
2025-09-03 13:27:08.991,-518133,-562697,-579020,-551179,2,2,2,2
2025-09-03 13:27:09.018,-518034,-570861,-562484,-551143,2,2,2,2
2025-09-03 13:27:09.044,-509793,-562747,-562684,-534842,2,2,2,2
2025-09-03 13:27:09.072,-517917,-562802,-579024,-551270,2,2,2,2
2025-09-03 13:27:09.100,-517993,-562585,-562687,-550973,2,2,2,2
2025-09-03 13:27:09.126,-518168,-562834,-579317,-551282,2,2,2,2
2025-09-03 13:27:09.153,-518128,-562715,-562494,-551169,2,2,2,2
2025-09-03 13:27:09.180,-518148,-562737,-562846,-534836,2,2,2,2
2025-09-03 13:27:09.208,-517985,-562844,-562690,-551232,2,2,2,2
2025-09-03 13:27:09.236,-518242,-562910,-562942,-534901,2,2,2,2
2025-09-03 13:27:09.264,-518023,-570906,-562475,-551064,2,2,2,2
2025-09-03 13:27:09.291,-517890,-562826,-562660,-551188,2,2,2,2
2025-09-03 13:27:09.318,-518029,-562785,-562549,-551132,2,2,2,2
2025-09-03 13:27:09.346,-518146,-562848,-571112,-551177,2,2,2,2
2025-09-03 13:27:09.373,-518045,-562889,-562577,-534727,2,2,2,2
2025-09-03 13:27:09.400,-517908,-562696,-579081,-551270,2,2,2,2
2025-09-03 13:27:09.428,-517996,-570982,-562462,-551045,2,2,2,2
2025-09-03 13:27:09.454,-517918,-579128,-562714,-543089,2,2,2,2
2025-09-03 13:27:09.484,-517897,-562669,-562677,-534545,2,2,2,2
2025-09-03 13:27:09.511,-518110,-562844,-579004,-551158,2,2,2,2
2025-09-03 13:27:09.538,-518129,-562905,-562929,-534799,2,2,2,2
2025-09-03 13:27:09.565,-518135,-562914,-562671,-551176,2,2,2,2
2025-09-03 13:27:09.593,-517900,-562933,-562680,-534883,2,2,2,2
2025-09-03 13:27:09.621,-518032,-562805,-562574,-551139,2,2,2,2
2025-09-03 13:27:09.648,-518133,-562820,-562916,-551174,2,2,2,2
2025-09-03 13:27:09.674,-518032,-562719,-562884,-551402,2,2,2,2
2025-09-03 13:27:09.701,-509802,-562686,-562547,-534584,2,2,2,2
2025-09-03 13:27:09.728,-518032,-570893,-562639,-551070,2,2,2,2
2025-09-03 13:27:09.756,-518019,-562691,-562809,-534928,2,2,2,2
2025-09-03 13:27:09.782,-518160,-562832,-579079,-551188,2,2,2,2
2025-09-03 13:27:09.809,-509848,-562706,-562837,-534992,2,2,2,2
2025-09-03 13:27:09.836,-517947,-562657,-578833,-550951,2,2,2,2
2025-09-03 13:27:09.862,-518150,-562898,-562709,-534835,2,2,2,2
2025-09-03 13:27:09.890,-517908,-562900,-562715,-534864,2,2,2,2
2025-09-03 13:27:09.918,-517906,-562574,-562447,-550940,2,2,2,2
2025-09-03 13:27:09.946,-518094,-562691,-562489,-551056,2,2,2,2
2025-09-03 13:27:09.973,-518117,-562707,-562572,-551138,2,2,2,2
2025-09-03 13:27:10.000,-509798,-562894,-562712,-534909,2,2,2,2
2025-09-03 13:27:10.027,-517917,-562567,-578827,-551015,2,2,2,2
2025-09-03 13:27:10.055,-518324,-562951,-579195,-551393,2,2,2,2
2025-09-03 13:27:10.082,-518382,-571235,-562913,-551426,2,2,2,2
2025-09-03 13:27:10.110,-517897,-570995,-562675,-551186,2,2,2,2
2025-09-03 13:27:10.138,-518141,-562733,-562583,-534836,2,2,2,2
2025-09-03 13:27:10.164,-518012,-562924,-579092,-551316,2,2,2,2
2025-09-03 13:27:10.191,-518207,-562949,-579108,-551301,2,2,2,2
2025-09-03 13:27:10.219,-518134,-562790,-579212,-551409,2,2,2,2
2025-09-03 13:27:10.254,-518133,-562807,-562816,-551418,2,2,2,2
2025-09-03 13:27:10.274,-518091,-562943,-579136,-551302,2,2,2,2
2025-09-03 13:27:10.301,-518190,-562945,-579082,-551294,2,2,2,2
2025-09-03 13:27:10.329,-518144,-562830,-571038,-551178,2,2,2,2
2025-09-03 13:27:10.356,-518142,-579306,-562926,-542996,2,2,2,2
2025-09-03 13:27:10.384,-518039,-562732,-562818,-535020,2,2,2,2
2025-09-03 13:27:10.413,-518369,-563046,-562752,-551403,2,2,2,2
2025-09-03 13:27:10.440,-518257,-562938,-562720,-534914,2,2,2,2
2025-09-03 13:27:10.468,-518173,-562826,-579324,-551198,2,2,2,2
2025-09-03 13:27:10.494,-509833,-562698,-562796,-551377,2,2,2,2
2025-09-03 13:27:10.520,-518151,-562829,-579074,-551197,2,2,2,2
2025-09-03 13:27:10.548,-518294,-579381,-562815,-543201,2,2,2,2
2025-09-03 13:27:10.576,-518114,-562739,-562927,-535028,2,2,2,2
2025-09-03 13:27:10.603,-518165,-562924,-562793,-551215,2,2,2,2
2025-09-03 13:27:10.631,-517963,-562698,-570984,-551229,2,2,2,2
2025-09-03 13:27:10.657,-518371,-563074,-562923,-551419,2,2,2,2
2025-09-03 13:27:10.685,-518135,-562845,-562684,-551168,2,2,2,2
2025-09-03 13:27:10.711,-518148,-562924,-579076,-551170,2,2,2,2
2025-09-03 13:27:10.739,-518144,-562926,-562695,-551171,2,2,2,2
2025-09-03 13:27:10.766,-510196,-563180,-562921,-535023,2,2,2,2
2025-09-03 13:27:10.793,-518295,-579528,-563089,-535180,2,2,2,2
2025-09-03 13:27:10.820,-517948,-562811,-562743,-551291,2,2,2,2
2025-09-03 13:27:10.848,-518129,-562847,-571039,-551388,2,2,2,2
2025-09-03 13:27:10.876,-518139,-562847,-562921,-551410,2,2,2,2
2025-09-03 13:27:10.901,-518012,-570904,-562465,-551024,2,2,2,2
2025-09-03 13:27:10.929,-518137,-562832,-579304,-551393,2,2,2,2
2025-09-03 13:27:10.956,-517941,-562693,-579129,-551196,2,2,2,2
2025-09-03 13:27:10.983,-518139,-562902,-562919,-534938,2,2,2,2
2025-09-03 13:27:11.009,-518133,-562830,-579298,-551319,2,2,2,2
2025-09-03 13:27:11.036,-518011,-562702,-562715,-551189,2,2,2,2
2025-09-03 13:27:11.063,-518152,-562835,-579257,-551306,2,2,2,2
2025-09-03 13:27:11.089,-518089,-562715,-579185,-551198,2,2,2,2
2025-09-03 13:27:11.117,-518115,-579186,-562812,-551282,2,2,2,2
2025-09-03 13:27:11.144,-518045,-579131,-562817,-534908,2,2,2,2
2025-09-03 13:27:11.170,-518099,-562819,-578948,-551046,2,2,2,2
2025-09-03 13:27:11.197,-517897,-579309,-562679,-542971,2,2,2,2
2025-09-03 13:27:11.225,-518145,-562926,-579273,-551417,2,2,2,2
2025-09-03 13:27:11.253,-517994,-562708,-570891,-551208,2,2,2,2
2025-09-03 13:27:11.279,-509944,-562921,-562662,-534785,2,2,2,2
2025-09-03 13:27:11.308,-518154,-579277,-562936,-535040,2,2,2,2
2025-09-03 13:27:11.335,-518147,-562924,-562936,-534835,2,2,2,2
2025-09-03 13:27:11.361,-518093,-562815,-571014,-551415,2,2,2,2
2025-09-03 13:27:11.388,-518292,-579531,-562814,-535021,2,2,2,2
2025-09-03 13:27:11.415,-518087,-562796,-579183,-551302,2,2,2,2
2025-09-03 13:27:11.441,-509809,-562719,-562537,-534652,2,2,2,2
2025-09-03 13:27:11.470,-518008,-579113,-562547,-534657,2,2,2,2
2025-09-03 13:27:11.497,-509945,-562904,-562667,-534793,2,2,2,2
2025-09-03 13:27:11.524,-517993,-562714,-570980,-551228,2,2,2,2
2025-09-03 13:27:11.551,-517948,-562719,-579171,-551301,2,2,2,2
2025-09-03 13:27:11.578,-518113,-562802,-578963,-551141,2,2,2,2
2025-09-03 13:27:11.605,-518137,-562817,-562657,-551161,2,2,2,2
2025-09-03 13:27:11.632,-518171,-562836,-579312,-551183,2,2,2,2
2025-09-03 13:27:11.660,-518026,-562935,-562801,-534904,2,2,2,2
2025-09-03 13:27:11.686,-518192,-562918,-579100,-551200,2,2,2,2
2025-09-03 13:27:11.714,-518043,-579079,-562817,-543111,2,2,2,2
2025-09-03 13:27:11.742,-517916,-579205,-562702,-542989,2,2,2,2
2025-09-03 13:27:11.770,-517900,-562815,-570890,-551175,2,2,2,2
2025-09-03 13:27:11.797,-518393,-563073,-571138,-551421,2,2,2,2
2025-09-03 13:27:11.826,-518247,-562954,-571006,-551229,2,2,2,2
2025-09-03 13:27:11.854,-518093,-562848,-570898,-551193,2,2,2,2
2025-09-03 13:27:11.881,-518103,-562846,-579325,-551184,2,2,2,2
2025-09-03 13:27:11.909,-518118,-562935,-562707,-551268,2,2,2,2
2025-09-03 13:27:11.935,-518040,-562943,-570987,-551224,2,2,2,2
