Timestamp,Ch1,Ch2,Ch3,Ch4,Ch5,Ch6,Ch7,Ch8
2025-09-03 13:05:55.636,456917,2,2,2,2,328399,2,7141873
2025-09-03 13:05:55.637,456850,2,2,2,2,328321,2,7141856
2025-09-03 13:05:55.637,456854,2,2,2,2,328313,2,7141778
2025-09-03 13:05:55.637,456859,2,2,2,2,328307,2,7141830
2025-09-03 13:05:55.637,456938,2,2,2,2,328314,2,5044611
2025-09-03 13:05:55.637,456943,2,2,2,2,328245,2,7141751
2025-09-03 13:05:55.637,456850,2,2,2,2,328199,2,2947577
2025-09-03 13:05:55.637,456845,2,2,2,2,328190,2,2947554
2025-09-03 13:05:55.638,456844,2,2,2,2,328174,2,7141771
2025-09-03 13:05:55.638,456764,2,2,2,2,328142,2,7141703
2025-09-03 13:05:55.638,456747,2,2,2,2,327988,2,7141634
2025-09-03 13:05:55.638,456724,2,2,2,2,327954,2,7141528
2025-09-03 13:05:55.639,456704,2,2,2,2,328176,2,2947183
2025-09-03 13:05:55.639,456683,2,2,2,2,328084,2,7141386
2025-09-03 13:05:55.639,456673,2,2,2,2,328062,2,7141607
2025-09-03 13:05:55.639,456603,2,2,2,2,328039,2,2947200
2025-09-03 13:05:55.640,456506,2,2,2,2,327929,2,7141381
2025-09-03 13:05:55.640,456477,2,2,2,2,327819,2,5044114
2025-09-03 13:05:55.640,456511,2,2,2,2,327741,2,7141244
2025-09-03 13:05:55.640,456476,2,2,2,2,327799,2,7141220
2025-09-03 13:05:55.641,456470,2,2,2,2,327782,2,2946827
2025-09-03 13:05:55.641,456462,2,2,2,2,327701,2,7141356
2025-09-03 13:05:55.641,456457,2,2,2,2,327682,2,7141327
2025-09-03 13:05:55.641,456701,2,2,2,2,327918,2,5044078
2025-09-03 13:05:55.642,456689,2,2,2,2,327898,2,7141169
2025-09-03 13:05:55.642,456676,2,2,2,2,327810,2,7141103
2025-09-03 13:05:55.642,456607,2,2,2,2,327790,2,2946708
2025-09-03 13:05:55.642,456666,2,2,2,2,327705,2,7140919
2025-09-03 13:05:55.643,456604,2,2,2,2,327692,2,7140960
2025-09-03 13:05:55.643,456653,2,2,2,2,327660,2,7141119
2025-09-03 13:05:55.643,456501,2,2,2,2,327623,2,7141046
2025-09-03 13:05:55.644,456468,2,2,2,2,327472,2,2946571
2025-09-03 13:05:55.644,456450,2,2,2,2,327667,2,7140838
2025-09-03 13:05:55.644,456436,2,2,2,2,327574,2,5043590
2025-09-03 13:05:55.644,456422,2,2,2,2,327484,2,7140676
2025-09-03 13:05:55.645,456416,2,2,2,2,327522,2,7140853
2025-09-03 13:05:55.645,456346,2,2,2,2,327475,2,2946462
2025-09-03 13:05:55.645,456332,2,2,2,2,327415,2,7140667
2025-09-03 13:05:55.646,456385,2,2,2,2,327392,2,7140670
2025-09-03 13:05:55.646,456316,2,2,2,2,327315,2,2946309
2025-09-03 13:05:55.646,456310,2,2,2,2,327295,2,7140587
2025-09-03 13:05:55.646,456306,2,2,2,2,327280,2,2946194
2025-09-03 13:05:55.647,456298,2,2,2,2,327196,2,7140405
2025-09-03 13:05:55.647,456295,2,2,2,2,327179,2,2946079
2025-09-03 13:05:55.647,456215,2,2,2,2,327407,2,2946048
2025-09-03 13:05:55.647,456197,2,2,2,2,327315,2,7140507
2025-09-03 13:05:55.648,456428,2,2,2,2,327246,2,2946165
2025-09-03 13:05:55.648,456388,2,2,2,2,327201,2,7140382
2025-09-03 13:05:55.648,456417,2,2,2,2,327189,2,7140364
2025-09-03 13:05:55.648,456340,2,2,2,2,327172,2,2946032
2025-09-03 13:05:55.649,456386,2,2,2,2,327143,2,7140303
2025-09-03 13:05:55.649,456319,2,2,2,2,327089,2,2945912
2025-09-03 13:05:55.649,456303,2,2,2,2,326966,2,2945821
2025-09-03 13:05:55.649,456219,2,2,2,2,326935,2,7140346
2025-09-03 13:05:55.650,456197,2,2,2,2,327150,2,7140300
2025-09-03 13:05:55.650,456194,2,2,2,2,327071,2,7140152
2025-09-03 13:05:55.650,456172,2,2,2,2,327035,2,7140120
2025-09-03 13:05:55.651,456122,2,2,2,2,326947,2,7140090
2025-09-03 13:05:55.651,456088,2,2,2,2,326923,2,2945689
2025-09-03 13:05:55.651,456135,2,2,2,2,326896,2,7139902
2025-09-03 13:05:55.652,456130,2,2,2,2,326815,2,7139881
2025-09-03 13:05:55.652,456074,2,2,2,2,326811,2,7139871
2025-09-03 13:05:55.652,456144,2,2,2,2,326876,2,7139897
2025-09-03 13:05:55.653,456073,2,2,2,2,326787,2,2945783
2025-09-03 13:05:55.653,456076,2,2,2,2,326776,2,2945766
2025-09-03 13:05:55.653,456073,2,2,2,2,326759,2,5042831
2025-09-03 13:05:55.653,456057,2,2,2,2,326661,2,7139915
2025-09-03 13:05:55.654,455960,2,2,2,2,326872,2,7139832
2025-09-03 13:05:55.654,455939,2,2,2,2,326776,2,2945422
2025-09-03 13:05:55.654,455943,2,2,2,2,326772,2,2945411
2025-09-03 13:05:55.654,455942,2,2,2,2,326762,2,7139632
2025-09-03 13:05:55.655,456177,2,2,2,2,326670,2,5042444
2025-09-03 13:05:55.655,456156,2,2,2,2,326640,2,7139781
2025-09-03 13:05:55.655,456063,2,2,2,2,326522,2,7139614
2025-09-03 13:05:55.656,456049,2,2,2,2,326433,2,2945275
2025-09-03 13:05:55.656,455957,2,2,2,2,326653,2,7139467
2025-09-03 13:05:55.656,455926,2,2,2,2,326613,2,7139355
2025-09-03 13:05:55.656,455907,2,2,2,2,326457,2,7139571
2025-09-03 13:05:55.657,455796,2,2,2,2,326403,2,7139434
2025-09-03 13:05:55.657,455696,2,2,2,2,326292,2,7139312
2025-09-03 13:05:55.657,455681,2,2,2,2,326200,2,7139215
2025-09-03 13:05:55.657,455935,2,2,2,2,326247,2,7139189
2025-09-03 13:05:55.658,455693,2,2,2,2,326249,2,2944872
2025-09-03 13:05:55.658,455697,2,2,2,2,326242,2,7139100
2025-09-03 13:05:55.658,455704,2,2,2,2,326172,2,7139083
2025-09-03 13:05:55.658,455738,2,2,2,2,326158,2,7139306
2025-09-03 13:05:55.659,455695,2,2,2,2,326389,2,7139209
2025-09-03 13:05:55.659,455934,2,2,2,2,326296,2,7139106
2025-09-03 13:05:55.659,455926,2,2,2,2,326275,2,2936582
2025-09-03 13:05:55.659,455836,2,2,2,2,326241,2,7138970
2025-09-03 13:05:55.660,455859,2,2,2,2,326151,2,7138940
2025-09-03 13:05:55.660,455838,2,2,2,2,326125,2,2936335
2025-09-03 13:05:55.661,455879,2,2,2,2,326029,2,7139047
2025-09-03 13:05:55.661,455786,2,2,2,2,325993,2,5041785
2025-09-03 13:05:55.661,455734,2,2,2,2,325895,2,7138828
2025-09-03 13:05:55.661,455699,2,2,2,2,326133,2,7138800
2025-09-03 13:05:55.662,455696,2,2,2,2,326116,2,2944407
2025-09-03 13:05:55.662,455681,2,2,2,2,326026,2,7138677
2025-09-03 13:05:55.662,455664,2,2,2,2,325997,2,7138575
2025-09-03 13:05:55.662,455576,2,2,2,2,325899,2,5041639
2025-09-03 13:05:55.663,455626,2,2,2,2,325871,2,7138695
2025-09-03 13:05:55.663,455479,2,2,2,2,325778,2,7138598
2025-09-03 13:05:55.663,455532,2,2,2,2,325752,2,2936072
2025-09-03 13:05:55.663,455461,2,2,2,2,325734,2,7138546
2025-09-03 13:05:55.664,455541,2,2,2,2,325736,2,5041388
2025-09-03 13:05:55.664,455468,2,2,2,2,325651,2,7138502
2025-09-03 13:05:55.664,455544,2,2,2,2,325653,2,2935941
2025-09-03 13:05:55.665,455619,2,2,2,2,325646,2,7138363
2025-09-03 13:05:55.665,455559,2,2,2,2,325640,2,7138415
2025-09-03 13:05:55.665,455549,2,2,2,2,325874,2,5041177
2025-09-03 13:05:55.665,455478,2,2,2,2,325855,2,7138312
2025-09-03 13:05:55.666,455548,2,2,2,2,325814,2,2944243
2025-09-03 13:05:55.666,455535,2,2,2,2,325759,2,2935962
2025-09-03 13:05:55.666,455454,2,2,2,2,325666,2,7138425
2025-09-03 13:05:55.667,455429,2,2,2,2,325635,2,7138359
2025-09-03 13:05:55.667,455658,2,2,2,2,325601,2,2935792
2025-09-03 13:05:55.667,455661,2,2,2,2,325523,2,7138274
2025-09-03 13:05:55.667,455664,2,2,2,2,325579,2,2943895
2025-09-03 13:05:55.668,455674,2,2,2,2,325519,2,7138199
2025-09-03 13:05:55.668,455674,2,2,2,2,325568,2,7138181
2025-09-03 13:05:55.668,455656,2,2,2,2,325415,2,7138086
2025-09-03 13:05:55.668,455650,2,2,2,2,325401,2,7138066
2025-09-03 13:05:55.669,455648,2,2,2,2,325391,2,2943999
2025-09-03 13:05:55.669,455581,2,2,2,2,325377,2,7138288
2025-09-03 13:05:55.669,455570,2,2,2,2,325606,2,7138198
2025-09-03 13:05:55.669,455549,2,2,2,2,325510,2,2943856
2025-09-03 13:05:55.670,455477,2,2,2,2,325491,2,7138070
2025-09-03 13:05:55.670,455448,2,2,2,2,325383,2,7138024
2025-09-03 13:05:55.670,455425,2,2,2,2,325346,2,7137918
2025-09-03 13:05:55.670,455412,2,2,2,2,325257,2,7137888
2025-09-03 13:05:55.671,455406,2,2,2,2,325234,2,7138033
2025-09-03 13:05:55.671,455391,2,2,2,2,325217,2,7138004
2025-09-03 13:05:55.671,455302,2,2,2,2,325121,2,5040744
2025-09-03 13:05:55.672,455243,2,2,2,2,325337,2,7137783
2025-09-03 13:05:55.672,455422,2,2,2,2,325143,2,2943262
2025-09-03 13:05:55.672,455411,2,2,2,2,325124,2,7137537
2025-09-03 13:05:55.673,455405,2,2,2,2,325110,2,7137768
2025-09-03 13:05:55.673,455322,2,2,2,2,325019,2,5040510
2025-09-03 13:05:55.673,455376,2,2,2,2,325066,2,7137603
2025-09-03 13:05:55.674,455297,2,2,2,2,324923,2,2935014
2025-09-03 13:05:55.674,455224,2,2,2,2,324870,2,7137473
2025-09-03 13:05:55.674,455291,2,2,2,2,325118,2,5040239
2025-09-03 13:05:55.674,455289,2,2,2,2,325101,2,2942997
2025-09-03 13:05:55.675,455294,2,2,2,2,325045,2,2943210
2025-09-03 13:05:55.675,455231,2,2,2,2,325007,2,7137494
2025-09-03 13:05:55.675,455295,2,2,2,2,324995,2,7137472
2025-09-03 13:05:55.676,455292,2,2,2,2,324980,2,5040228
2025-09-03 13:05:55.676,455279,2,2,2,2,324887,2,7137280
2025-09-03 13:05:55.676,455269,2,2,2,2,324861,2,2934687
2025-09-03 13:05:55.676,455199,2,2,2,2,324848,2,2934665
2025-09-03 13:05:55.677,455264,2,2,2,2,324837,2,7137079
2025-09-03 13:05:55.677,455192,2,2,2,2,324759,2,2942751
2025-09-03 13:05:55.677,455191,2,2,2,2,324742,2,2942728
2025-09-03 13:05:55.677,455197,2,2,2,2,324669,2,7137270
2025-09-03 13:05:55.678,455188,2,2,2,2,324709,2,7137174
2025-09-03 13:05:55.678,455170,2,2,2,2,324612,2,7137132
2025-09-03 13:05:55.678,455155,2,2,2,2,324838,2,7137033
2025-09-03 13:05:55.678,455148,2,2,2,2,324751,2,2942698
2025-09-03 13:05:55.679,455143,2,2,2,2,324803,2,7136983
2025-09-03 13:05:55.679,455064,2,2,2,2,324718,2,7136886
2025-09-03 13:05:55.679,455038,2,2,2,2,324619,2,7136780
2025-09-03 13:05:55.679,454990,2,2,2,2,324589,2,7136997
2025-09-03 13:05:55.680,454932,2,2,2,2,324488,2,7136892
2025-09-03 13:05:55.680,455161,2,2,2,2,324415,2,2934287
2025-09-03 13:05:55.680,455142,2,2,2,2,324607,2,7136744
2025-09-03 13:05:55.680,455066,2,2,2,2,324585,2,7136647
2025-09-03 13:05:55.681,455046,2,2,2,2,324550,2,7136539
2025-09-03 13:05:55.681,455026,2,2,2,2,324452,2,2942452
2025-09-03 13:05:55.681,455019,2,2,2,2,324356,2,2934156
2025-09-03 13:05:55.682,454951,2,2,2,2,324340,2,7136569
2025-09-03 13:05:55.682,455015,2,2,2,2,324327,2,7136617
2025-09-03 13:05:55.682,454944,2,2,2,2,324306,2,7136561
2025-09-03 13:05:55.683,454905,2,2,2,2,324127,2,2933913
2025-09-03 13:05:55.683,454882,2,2,2,2,324097,2,7136309
2025-09-03 13:05:55.683,454794,2,2,2,2,324254,2,7136271
2025-09-03 13:05:55.683,454780,2,2,2,2,324291,2,7136500
2025-09-03 13:05:55.684,454764,2,2,2,2,324195,2,7136398
2025-09-03 13:05:55.684,454679,2,2,2,2,324099,2,2933871
2025-09-03 13:05:55.684,454678,2,2,2,2,324087,2,7136289
2025-09-03 13:05:55.685,454674,2,2,2,2,324073,2,5039123
2025-09-03 13:05:55.685,454684,2,2,2,2,323980,2,2933733
2025-09-03 13:05:55.686,454669,2,2,2,2,323958,2,7136202
2025-09-03 13:05:55.686,454901,2,2,2,2,323859,2,7136098
2025-09-03 13:05:55.686,454888,2,2,2,2,324087,2,7136001
2025-09-03 13:05:55.686,454877,2,2,2,2,324066,2,7136224
2025-09-03 13:05:55.687,454785,2,2,2,2,323967,2,2933616
2025-09-03 13:05:55.687,454691,2,2,2,2,323869,2,7136004
2025-09-03 13:05:55.687,454756,2,2,2,2,323862,2,7135988
2025-09-03 13:05:55.687,454771,2,2,2,2,323868,2,5038830
2025-09-03 13:05:55.688,454709,2,2,2,2,323860,2,7135929
2025-09-03 13:05:55.688,454768,2,2,2,2,323842,2,2933376
2025-09-03 13:05:55.688,454761,2,2,2,2,323823,2,7135846
2025-09-03 13:05:55.688,454759,2,2,2,2,323743,2,7135759
2025-09-03 13:05:55.689,454768,2,2,2,2,323738,2,5038598
2025-09-03 13:05:55.689,454714,2,2,2,2,323785,2,7135976
2025-09-03 13:05:55.689,454791,2,2,2,2,323718,2,7135970
2025-09-03 13:05:55.690,454789,2,2,2,2,323703,2,7135880
2025-09-03 13:05:55.690,454785,2,2,2,2,323619,2,7135815
2025-09-03 13:05:55.690,454761,2,2,2,2,323587,2,2941436
2025-09-03 13:05:55.690,454669,2,2,2,2,323803,2,7135693
2025-09-03 13:05:55.691,454651,2,2,2,2,323713,2,7135527
2025-09-03 13:05:55.691,454634,2,2,2,2,323684,2,7135743
2025-09-03 13:05:55.691,454581,2,2,2,2,323587,2,7135633
2025-09-03 13:05:55.691,454559,2,2,2,2,323586,2,7135622
2025-09-03 13:05:55.692,446443,2,2,2,2,323584,2,2941303
2025-09-03 13:05:55.692,454631,2,2,2,2,323571,2,7135514
2025-09-03 13:05:55.692,454637,2,2,2,2,323565,2,7135502
2025-09-03 13:05:55.692,454643,2,2,2,2,323562,2,5038339
2025-09-03 13:05:55.693,454645,2,2,2,2,323553,2,7135438
2025-09-03 13:05:55.693,454631,2,2,2,2,323460,2,2932874
2025-09-03 13:05:55.693,446356,2,2,2,2,323434,2,2932837
2025-09-03 13:05:55.693,454615,2,2,2,2,323429,2,7135250
2025-09-03 13:05:55.694,454547,2,2,2,2,323351,2,5038335
2025-09-03 13:05:55.694,454594,2,2,2,2,323582,2,7135449
2025-09-03 13:05:55.694,454452,2,2,2,2,323554,2,7135288
2025-09-03 13:05:55.694,454513,2,2,2,2,323470,2,7135330
2025-09-03 13:05:55.695,454506,2,2,2,2,323451,2,2932741
2025-09-03 13:05:55.695,454499,2,2,2,2,315238,2,5021671
2025-09-03 13:05:55.695,454418,2,2,2,2,315142,2,5021572
2025-09-03 13:05:55.695,454410,2,2,2,2,323315,2,7135049
2025-09-03 13:05:55.696,454615,2,2,2,2,323189,2,7118807
2025-09-03 13:05:55.696,454536,2,2,2,2,323097,2,2940784
2025-09-03 13:05:55.696,454519,2,2,2,2,323320,2,7118599
2025-09-03 13:05:55.697,454503,2,2,2,2,315104,2,2924265
2025-09-03 13:05:55.697,454502,2,2,2,2,323218,2,7118486
2025-09-03 13:05:55.697,454416,2,2,2,2,323185,2,7118447
2025-09-03 13:05:55.697,454388,2,2,2,2,323080,2,2940671
2025-09-03 13:05:55.698,454295,2,2,2,2,323040,2,7118546
2025-09-03 13:05:55.698,454204,2,2,2,2,322872,2,7134762
2025-09-03 13:05:55.698,446059,2,2,2,2,322844,2,2924042
2025-09-03 13:05:55.698,454173,2,2,2,2,322821,2,7118321
2025-09-03 13:05:55.699,454161,2,2,2,2,323019,2,2932114
2025-09-03 13:05:55.699,454152,2,2,2,2,314771,2,5021049
2025-09-03 13:05:55.699,454389,2,2,2,2,322938,2,7118107
2025-09-03 13:05:55.699,446178,2,2,2,2,322913,2,2924028
2025-09-03 13:05:55.700,454346,2,2,2,2,322820,2,7118302
2025-09-03 13:05:55.700,454219,2,2,2,2,322780,2,7134578
2025-09-03 13:05:55.700,454172,2,2,2,2,322686,2,5020946
2025-09-03 13:05:55.700,454156,2,2,2,2,322660,2,7118069
2025-09-03 13:05:55.701,454138,2,2,2,2,322563,2,2923665
2025-09-03 13:05:55.701,454136,2,2,2,2,322806,2,2931842
2025-09-03 13:05:55.701,454143,2,2,2,2,322803,2,7117885
2025-09-03 13:05:55.701,454141,2,2,2,2,322788,2,7117932
2025-09-03 13:05:55.702,454130,2,2,2,2,322767,2,7134226
2025-09-03 13:05:55.702,445961,2,2,2,2,322696,2,2923523
2025-09-03 13:05:55.702,454151,2,2,2,2,322681,2,7118063
2025-09-03 13:05:55.703,454135,2,2,2,2,322591,2,7117969
2025-09-03 13:05:55.703,454041,2,2,2,2,322549,2,7117920
2025-09-03 13:05:55.703,454088,2,2,2,2,322520,2,7134204
2025-09-03 13:05:55.704,454018,2,2,2,2,322431,2,2931605
2025-09-03 13:05:55.704,454020,2,2,2,2,322424,2,7117702
2025-09-03 13:05:55.704,454004,2,2,2,2,322335,2,5020517
2025-09-03 13:05:55.704,453922,2,2,2,2,322308,2,7133956
2025-09-03 13:05:55.705,453926,2,2,2,2,322541,2,7117791
2025-09-03 13:05:55.705,453985,2,2,2,2,322491,2,2939780
2025-09-03 13:05:55.705,453906,2,2,2,2,322432,2,7117599
2025-09-03 13:05:55.706,453902,2,2,2,2,314221,2,5020421
2025-09-03 13:05:55.706,445717,2,2,2,2,322409,2,2923257
2025-09-03 13:05:55.706,453890,2,2,2,2,322304,2,2931322
2025-09-03 13:05:55.707,454128,2,2,2,2,322275,2,7117330
2025-09-03 13:05:55.707,454115,2,2,2,2,322254,2,7133937
2025-09-03 13:05:55.707,454106,2,2,2,2,322104,2,7133873
2025-09-03 13:05:55.708,454014,2,2,2,2,322056,2,2931211
2025-09-03 13:05:55.708,454001,2,2,2,2,322290,2,2939370
2025-09-03 13:05:55.708,453912,2,2,2,2,322195,2,7117119
2025-09-03 13:05:55.708,453893,2,2,2,2,313969,2,2922769
2025-09-03 13:05:55.709,445698,2,2,2,2,322079,2,2922994
2025-09-03 13:05:55.709,453882,2,2,2,2,322060,2,7117201
2025-09-03 13:05:55.709,453872,2,2,2,2,322033,2,2939247
2025-09-03 13:05:55.709,453869,2,2,2,2,322022,2,7117084
2025-09-03 13:05:55.710,453860,2,2,2,2,321940,2,7117059
2025-09-03 13:05:55.710,445676,2,2,2,2,321933,2,2922741
2025-09-03 13:05:55.710,453870,2,2,2,2,321923,2,7117022
2025-09-03 13:05:55.710,453857,2,2,2,2,321864,2,2930816
2025-09-03 13:05:55.711,453764,2,2,2,2,322047,2,7133200
2025-09-03 13:05:55.711,445465,2,2,2,2,321917,2,2922621
2025-09-03 13:05:55.711,445687,2,2,2,2,321810,2,2930693
2025-09-03 13:05:55.712,453859,2,2,2,2,321781,2,7116760
2025-09-03 13:05:55.712,453830,2,2,2,2,321775,2,7133065
2025-09-03 13:05:55.712,453808,2,2,2,2,321740,2,7132987
2025-09-03 13:05:55.713,445548,2,2,2,2,321550,2,2922386
2025-09-03 13:05:55.713,453736,2,2,2,2,321538,2,7116603
2025-09-03 13:05:55.713,453736,2,2,2,2,321788,2,7116651
2025-09-03 13:05:55.713,453731,2,2,2,2,313583,2,5019407
2025-09-03 13:05:55.714,453664,2,2,2,2,321755,2,7132917
2025-09-03 13:05:55.714,453732,2,2,2,2,321713,2,2930407
2025-09-03 13:05:55.714,453674,2,2,2,2,321673,2,7116506
2025-09-03 13:05:55.714,453679,2,2,2,2,321669,2,7116497
2025-09-03 13:05:55.715,453757,2,2,2,2,313480,2,5019281
2025-09-03 13:05:55.715,453824,2,2,2,2,321596,2,7132869
2025-09-03 13:05:55.715,453747,2,2,2,2,321638,2,2930283
2025-09-03 13:05:55.716,453667,2,2,2,2,321549,2,7116305
2025-09-03 13:05:55.716,453651,2,2,2,2,313327,2,2922223
2025-09-03 13:05:55.716,453629,2,2,2,2,313227,2,2922117
2025-09-03 13:05:55.716,453620,2,2,2,2,321331,2,7132718
2025-09-03 13:05:55.717,453610,2,2,2,2,321307,2,7116310
2025-09-03 13:05:55.717,453606,2,2,2,2,321289,2,7116295
2025-09-03 13:05:55.717,453604,2,2,2,2,321532,2,7116279
2025-09-03 13:05:55.717,453601,2,2,2,2,313321,2,5019105
2025-09-03 13:05:55.718,453594,2,2,2,2,321495,2,7132554
2025-09-03 13:05:55.718,453521,2,2,2,2,321414,2,2930038
2025-09-03 13:05:55.718,453511,2,2,2,2,321391,2,7116059
2025-09-03 13:05:55.718,453493,2,2,2,2,321296,2,7132665
2025-09-03 13:05:55.719,453476,2,2,2,2,321267,2,7116181
2025-09-03 13:05:55.719,453400,2,2,2,2,321224,2,7116073
2025-09-03 13:05:55.719,453384,2,2,2,2,321135,2,7116040
2025-09-03 13:05:55.720,453625,2,2,2,2,321079,2,2938090
2025-09-03 13:05:55.720,453618,2,2,2,2,321032,2,7132346
2025-09-03 13:05:55.720,453614,2,2,2,2,321025,2,7115916
2025-09-03 13:05:55.720,453603,2,2,2,2,321258,2,7132205
2025-09-03 13:05:55.721,453521,2,2,2,2,321165,2,7115783
2025-09-03 13:05:55.721,453503,2,2,2,2,321132,2,5018849
2025-09-03 13:05:55.721,453491,2,2,2,2,321045,2,7132288
2025-09-03 13:05:55.721,453476,2,2,2,2,321021,2,7115804
2025-09-03 13:05:55.722,445213,2,2,2,2,321000,2,2921468
2025-09-03 13:05:55.722,453395,2,2,2,2,320914,2,7115673
2025-09-03 13:05:55.722,453388,2,2,2,2,320896,2,7115638
2025-09-03 13:05:55.722,453374,2,2,2,2,320809,2,7131925
2025-09-03 13:05:55.723,453367,2,2,2,2,320791,2,7115771
2025-09-03 13:05:55.723,453362,2,2,2,2,320774,2,7132130
2025-09-03 13:05:55.723,445166,2,2,2,2,321012,2,2929544
2025-09-03 13:05:55.723,453353,2,2,2,2,320997,2,7115565
2025-09-03 13:05:55.724,453360,2,2,2,2,320925,2,7115548
2025-09-03 13:05:55.724,453277,2,2,2,2,320891,2,7115507
2025-09-03 13:05:55.724,445058,2,2,2,2,320775,2,2921066
2025-09-03 13:05:55.725,453171,2,2,2,2,320741,2,7115269
2025-09-03 13:05:55.725,453171,2,2,2,2,320573,2,7131795
2025-09-03 13:05:55.725,453364,2,2,2,2,312335,2,5018210
2025-09-03 13:05:55.725,453266,2,2,2,2,320671,2,7115239
2025-09-03 13:05:55.726,445052,2,2,2,2,320636,2,2920828
2025-09-03 13:05:55.726,453229,2,2,2,2,320617,2,7115038
2025-09-03 13:05:55.726,453153,2,2,2,2,320534,2,7115008
2025-09-03 13:05:55.726,453140,2,2,2,2,320506,2,5018010
2025-09-03 13:05:55.727,453128,2,2,2,2,320484,2,7131510
2025-09-03 13:05:55.727,444824,2,2,2,2,320354,2,2928794
2025-09-03 13:05:55.727,453066,2,2,2,2,320263,2,7114802
2025-09-03 13:05:55.728,452996,2,2,2,2,320509,2,7114778
2025-09-03 13:05:55.728,452990,2,2,2,2,312297,2,5017600
2025-09-03 13:05:55.728,453056,2,2,2,2,320481,2,7131378
2025-09-03 13:05:55.728,453003,2,2,2,2,320483,2,7114989
2025-09-03 13:05:55.729,453006,2,2,2,2,320441,2,2928798
2025-09-03 13:05:55.729,453005,2,2,2,2,320392,2,7114954
2025-09-03 13:05:55.729,453008,2,2,2,2,312192,2,5017720
2025-09-03 13:05:55.729,453077,2,2,2,2,320313,2,7131210
2025-09-03 13:05:55.730,453074,2,2,2,2,320296,2,7114771
2025-09-03 13:05:55.730,453009,2,2,2,2,320285,2,7131139
2025-09-03 13:05:55.730,453086,2,2,2,2,320281,2,7114748
2025-09-03 13:05:55.730,453090,2,2,2,2,320275,2,7114733
2025-09-03 13:05:55.731,453110,2,2,2,2,312094,2,2920433
2025-09-03 13:05:55.731,453118,2,2,2,2,320281,2,7114726
2025-09-03 13:05:55.731,453110,2,2,2,2,320260,2,7114633
2025-09-03 13:05:55.731,453023,2,2,2,2,320226,2,7114592
2025-09-03 13:05:55.732,452986,2,2,2,2,320113,2,7114731
2025-09-03 13:05:55.732,444687,2,2,2,2,320004,2,2920315
2025-09-03 13:05:55.732,444923,2,2,2,2,320234,2,2920223
2025-09-03 13:05:55.732,453105,2,2,2,2,320147,2,7114510
2025-09-03 13:05:55.733,453092,2,2,2,2,320124,2,7114486
2025-09-03 13:05:55.733,453011,2,2,2,2,320031,2,7114385
2025-09-03 13:05:55.733,452992,2,2,2,2,320003,2,7114353
2025-09-03 13:05:55.733,444783,2,2,2,2,319976,2,2919956
2025-09-03 13:05:55.734,452890,2,2,2,2,319951,2,7114484
2025-09-03 13:05:55.734,452876,2,2,2,2,319795,2,7130780
2025-09-03 13:05:55.734,452861,2,2,2,2,319771,2,5017217
2025-09-03 13:05:55.734,452812,2,2,2,2,319744,2,7130692
2025-09-03 13:05:55.735,452829,2,2,2,2,319895,2,7114226
2025-09-03 13:05:55.735,452822,2,2,2,2,319876,2,7114202
2025-09-03 13:05:55.735,452753,2,2,2,2,319858,2,7114113
2025-09-03 13:05:55.736,452736,2,2,2,2,319767,2,7130466
2025-09-03 13:05:55.736,452863,2,2,2,2,319605,2,7114030
2025-09-03 13:05:55.737,452617,2,2,2,2,319606,2,7114087
2025-09-03 13:05:55.737,452614,2,2,2,2,319590,2,7114003
2025-09-03 13:05:55.737,452862,2,2,2,2,319503,2,7130353
2025-09-03 13:05:55.738,452862,2,2,2,2,319734,2,2919555
2025-09-03 13:05:55.738,452862,2,2,2,2,319717,2,7130222
2025-09-03 13:05:55.738,452852,2,2,2,2,319635,2,5016593
2025-09-03 13:05:55.738,452836,2,2,2,2,319549,2,7130319
2025-09-03 13:05:55.739,452735,2,2,2,2,319491,2,2919523
2025-09-03 13:05:55.739,452727,2,2,2,2,319437,2,2935813
2025-09-03 13:05:55.739,452714,2,2,2,2,303002,2,7113703
2025-09-03 13:05:55.740,452670,2,2,2,2,303044,2,7129991
2025-09-03 13:05:55.740,452629,2,2,2,2,302897,2,7129895
2025-09-03 13:05:55.740,452607,2,2,2,2,319238,2,2919397
2025-09-03 13:05:55.741,452604,2,2,2,2,303097,2,7113678
2025-09-03 13:05:55.741,452612,2,2,2,2,311285,2,2919300
2025-09-03 13:05:55.741,452626,2,2,2,2,303096,2,7129982
2025-09-03 13:05:55.742,452618,2,2,2,2,319416,2,2919175
2025-09-03 13:05:55.742,452606,2,2,2,2,302974,2,7113442
2025-09-03 13:05:55.742,452595,2,2,2,2,302951,2,7113408
2025-09-03 13:05:55.742,452582,2,2,2,2,311053,2,2919008
2025-09-03 13:05:55.743,452577,2,2,2,2,302849,2,7129608
2025-09-03 13:05:55.743,452577,2,2,2,2,319217,2,2919151
2025-09-03 13:05:55.743,452504,2,2,2,2,319160,2,2935436
2025-09-03 13:05:55.743,452483,2,2,2,2,302710,2,7113253
2025-09-03 13:05:55.744,452471,2,2,2,2,302688,2,7113222
2025-09-03 13:05:55.744,452398,2,2,2,2,302846,2,7113169
2025-09-03 13:05:55.744,452452,2,2,2,2,302829,2,7113080
2025-09-03 13:05:55.745,452404,2,2,2,2,319187,2,7129368
2025-09-03 13:05:55.745,452352,2,2,2,2,302647,2,7129588
2025-09-03 13:05:55.745,444414,2,2,2,2,319082,2,2918882
2025-09-03 13:05:55.745,452586,2,2,2,2,302606,2,7113019
2025-09-03 13:05:55.746,452502,2,2,2,2,302567,2,7112971
2025-09-03 13:05:55.746,452487,2,2,2,2,302470,2,7112933
2025-09-03 13:05:55.746,452469,2,2,2,2,302375,2,7129216
2025-09-03 13:05:55.746,452454,2,2,2,2,310544,2,2918497
2025-09-03 13:05:55.747,444173,2,2,2,2,318960,2,2918650
2025-09-03 13:05:55.747,452338,2,2,2,2,302475,2,7112907
2025-09-03 13:05:55.747,452247,2,2,2,2,302439,2,7112802
2025-09-03 13:05:55.747,452230,2,2,2,2,302351,2,7129088
2025-09-03 13:05:55.748,452227,2,2,2,2,302338,2,7112685
2025-09-03 13:05:55.748,444035,2,2,2,2,318706,2,2918296
2025-09-03 13:05:55.748,452141,2,2,2,2,302223,2,7112497
2025-09-03 13:05:55.748,452129,2,2,2,2,302197,2,7112471
2025-09-03 13:05:55.749,452209,2,2,2,2,310390,2,5015317
2025-09-03 13:05:55.749,452219,2,2,2,2,302109,2,7112694
2025-09-03 13:05:55.750,452139,2,2,2,2,302085,2,7112663
2025-09-03 13:05:55.750,452119,2,2,2,2,310508,2,2918265
2025-09-03 13:05:55.750,452151,2,2,2,2,302306,2,7128911
2025-09-03 13:05:55.750,452112,2,2,2,2,302292,2,7128861
2025-09-03 13:05:55.751,452103,2,2,2,2,302210,2,7112452
2025-09-03 13:05:55.751,452102,2,2,2,2,302195,2,7112435
2025-09-03 13:05:55.751,452099,2,2,2,2,302111,2,7112417
2025-09-03 13:05:55.751,452333,2,2,2,2,310271,2,5015164
2025-09-03 13:05:55.752,452299,2,2,2,2,302033,2,7128590
2025-09-03 13:05:55.752,452210,2,2,2,2,318320,2,2918118
2025-09-03 13:05:55.752,452195,2,2,2,2,301846,2,7112330
2025-09-03 13:05:55.752,452158,2,2,2,2,318211,2,7128688
2025-09-03 13:05:55.753,452113,2,2,2,2,302058,2,7112206
2025-09-03 13:05:55.753,443913,2,2,2,2,318360,2,2917877
2025-09-03 13:05:55.753,452119,2,2,2,2,302040,2,7112180
2025-09-03 13:05:55.753,452123,2,2,2,2,301967,2,7112168
2025-09-03 13:05:55.754,452127,2,2,2,2,318345,2,2934169
2025-09-03 13:05:55.754,452102,2,2,2,2,301920,2,7111967
2025-09-03 13:05:55.754,443885,2,2,2,2,318205,2,2917874
2025-09-03 13:05:55.755,452067,2,2,2,2,301800,2,7112082
2025-09-03 13:05:55.755,451997,2,2,2,2,309909,2,5014905
2025-09-03 13:05:55.755,452029,2,2,2,2,301768,2,7128420
2025-09-03 13:05:55.755,451995,2,2,2,2,301688,2,7111947
2025-09-03 13:05:55.756,443784,2,2,2,2,317976,2,2917609
2025-09-03 13:05:55.756,451965,2,2,2,2,301568,2,7111816
2025-09-03 13:05:55.756,451902,2,2,2,2,301816,2,7111734
2025-09-03 13:05:55.756,451911,2,2,2,2,318170,2,7128077
2025-09-03 13:05:55.757,451844,2,2,2,2,301680,2,7111836
2025-09-03 13:05:55.757,452088,2,2,2,2,301591,2,7111739
2025-09-03 13:05:55.757,443894,2,2,2,2,317957,2,2917474
2025-09-03 13:05:55.757,452095,2,2,2,2,301565,2,7111695
2025-09-03 13:05:55.758,452091,2,2,2,2,317932,2,2933747
2025-09-03 13:05:55.758,452079,2,2,2,2,301521,2,7127951
2025-09-03 13:05:55.758,443876,2,2,2,2,317796,2,2917134
2025-09-03 13:05:55.759,452057,2,2,2,2,301321,2,7111661
2025-09-03 13:05:55.759,451986,2,2,2,2,301558,2,5014417
2025-09-03 13:05:55.759,451981,2,2,2,2,301546,2,7127931
2025-09-03 13:05:55.759,451973,2,2,2,2,301462,2,7111454
2025-09-03 13:05:55.760,443772,2,2,2,2,317828,2,2917116
2025-09-03 13:05:55.760,451961,2,2,2,2,317815,2,2917089
2025-09-03 13:05:55.760,451884,2,2,2,2,301410,2,7111361
2025-09-03 13:05:55.760,451941,2,2,2,2,301330,2,5014117
2025-09-03 13:05:55.761,451862,2,2,2,2,301302,2,7127555
2025-09-03 13:05:55.761,443658,2,2,2,2,317664,2,2917098
2025-09-03 13:05:55.761,443650,2,2,2,2,317583,2,2917009
2025-09-03 13:05:55.761,451857,2,2,2,2,301202,2,7111370
2025-09-03 13:05:55.762,451862,2,2,2,2,301195,2,5014139
2025-09-03 13:05:55.762,451851,2,2,2,2,301172,2,7111194
2025-09-03 13:05:55.762,451842,2,2,2,2,301082,2,7127544
2025-09-03 13:05:55.762,443635,2,2,2,2,317695,2,2916759
2025-09-03 13:05:55.763,451815,2,2,2,2,317638,2,2916728
2025-09-03 13:05:55.763,451771,2,2,2,2,317646,2,7127323
2025-09-03 13:05:55.763,451727,2,2,2,2,309366,2,5014014
2025-09-03 13:05:55.763,451777,2,2,2,2,301087,2,7127487
2025-09-03 13:05:55.764,451634,2,2,2,2,301053,2,7110952
2025-09-03 13:05:55.764,451613,2,2,2,2,300958,2,7110913
2025-09-03 13:05:55.764,451598,2,2,2,2,309114,2,5013661
2025-09-03 13:05:55.765,451586,2,2,2,2,309090,2,2916482
2025-09-03 13:05:55.765,443629,2,2,2,2,317188,2,2916380
2025-09-03 13:05:55.765,451731,2,2,2,2,301025,2,7110901
2025-09-03 13:05:55.765,451702,2,2,2,2,300920,2,7110791
2025-09-03 13:05:55.766,451605,2,2,2,2,300816,2,7110683
2025-09-03 13:05:55.766,451577,2,2,2,2,308973,2,2916343
2025-09-03 13:05:55.766,451556,2,2,2,2,300755,2,7110619
2025-09-03 13:05:55.766,451529,2,2,2,2,300658,2,7110458
2025-09-03 13:05:55.767,451461,2,2,2,2,300640,2,7110505
2025-09-03 13:05:55.767,451466,2,2,2,2,300572,2,7094117
2025-09-03 13:05:55.767,451468,2,2,2,2,300570,2,7110428
2025-09-03 13:05:55.767,443264,2,2,2,2,316930,2,2916347
2025-09-03 13:05:55.768,451380,2,2,2,2,300782,2,7110626
2025-09-03 13:05:55.768,451433,2,2,2,2,300699,2,7110539
2025-09-03 13:05:55.768,451380,2,2,2,2,317121,2,7094121
2025-09-03 13:05:55.768,451333,2,2,2,2,300580,2,7094028
2025-09-03 13:05:55.769,451331,2,2,2,2,316949,2,2916093
2025-09-03 13:05:55.769,451328,2,2,2,2,300553,2,7110379
2025-09-03 13:05:55.769,451577,2,2,2,2,300535,2,7110354
2025-09-03 13:05:55.769,451553,2,2,2,2,300429,2,7110244
2025-09-03 13:05:55.770,451461,2,2,2,2,300323,2,7094005
2025-09-03 13:05:55.770,443258,2,2,2,2,316679,2,2915990
2025-09-03 13:05:55.770,451385,2,2,2,2,300523,2,7110188
2025-09-03 13:05:55.771,451439,2,2,2,2,300439,2,7110160
2025-09-03 13:05:55.771,451357,2,2,2,2,300345,2,7093701
2025-09-03 13:05:55.771,451351,2,2,2,2,300326,2,7093639
2025-09-03 13:05:55.772,451359,2,2,2,2,316726,2,2915688
2025-09-03 13:05:55.772,451339,2,2,2,2,300283,2,7109890
2025-09-03 13:05:55.772,451317,2,2,2,2,300189,2,5012895
2025-09-03 13:05:55.772,451290,2,2,2,2,300090,2,7093617
2025-09-03 13:05:55.773,451197,2,2,2,2,316420,2,2899177
2025-09-03 13:05:55.773,451196,2,2,2,2,316664,2,2899092
2025-09-03 13:05:55.773,451203,2,2,2,2,300273,2,7109827
2025-09-03 13:05:55.774,451191,2,2,2,2,300250,2,7093309
2025-09-03 13:05:55.774,451120,2,2,2,2,300168,2,7109632
2025-09-03 13:05:55.774,451168,2,2,2,2,300148,2,7109790
2025-09-03 13:05:55.774,451075,2,2,2,2,316429,2,2915441
2025-09-03 13:05:55.775,451312,2,2,2,2,300010,2,7109635
2025-09-03 13:05:55.775,451303,2,2,2,2,299991,2,7093186
2025-09-03 13:05:55.775,451297,2,2,2,2,299974,2,7093124
2025-09-03 13:05:55.776,451230,2,2,2,2,316227,2,2915088
2025-09-03 13:05:55.776,451231,2,2,2,2,307990,2,5012473
2025-09-03 13:05:55.776,451307,2,2,2,2,299801,2,7109624
2025-09-03 13:05:55.776,451312,2,2,2,2,307993,2,2915307
2025-09-03 13:05:55.777,451287,2,2,2,2,300007,2,7109418
2025-09-03 13:05:55.777,451194,2,2,2,2,316282,2,2898679
2025-09-03 13:05:55.777,451103,2,2,2,2,299792,2,7109319
2025-09-03 13:05:55.778,451090,2,2,2,2,307958,2,5012067
2025-09-03 13:05:55.778,451081,2,2,2,2,299745,2,7109121
2025-09-03 13:05:55.778,451065,2,2,2,2,299655,2,7109339
2025-09-03 13:05:55.778,451067,2,2,2,2,316034,2,2914957
2025-09-03 13:05:55.779,451058,2,2,2,2,299629,2,7109168
2025-09-03 13:05:55.779,442757,2,2,2,2,316140,2,2914784
2025-09-03 13:05:55.779,450869,2,2,2,2,299728,2,7109059
2025-09-03 13:05:55.780,450917,2,2,2,2,299639,2,7108962
2025-09-03 13:05:55.780,450868,2,2,2,2,299546,2,7092732
2025-09-03 13:05:55.780,450817,2,2,2,2,299517,2,7109010
2025-09-03 13:05:55.780,451056,2,2,2,2,307686,2,2914678
2025-09-03 13:05:55.781,451047,2,2,2,2,299476,2,7092508
2025-09-03 13:05:55.781,451046,2,2,2,2,299405,2,7108874
2025-09-03 13:05:55.781,451040,2,2,2,2,299385,2,7108849
2025-09-03 13:05:55.781,450992,2,2,2,2,299292,2,7092364
2025-09-03 13:05:55.782,451015,2,2,2,2,299268,2,7092340
2025-09-03 13:05:55.782,450876,2,2,2,2,299488,2,7108622
2025-09-03 13:05:55.782,450916,2,2,2,2,299394,2,7108843
2025-09-03 13:05:55.783,450831,2,2,2,2,307559,2,5011598
2025-09-03 13:05:55.783,450824,2,2,2,2,307475,2,2914426
2025-09-03 13:05:55.783,450810,2,2,2,2,315632,2,2914321
2025-09-03 13:05:55.784,450787,2,2,2,2,315571,2,2897905
2025-09-03 13:05:55.784,450710,2,2,2,2,299131,2,5011348
2025-09-03 13:05:55.784,450741,2,2,2,2,299058,2,7092103
2025-09-03 13:05:55.785,450703,2,2,2,2,299028,2,7108453
2025-09-03 13:05:55.785,450786,2,2,2,2,315449,2,2914147
2025-09-03 13:05:55.785,450802,2,2,2,2,299035,2,7108386
2025-09-03 13:05:55.785,450794,2,2,2,2,307208,2,5011211
2025-09-03 13:05:55.786,442602,2,2,2,2,315393,2,2914301
2025-09-03 13:05:55.786,450803,2,2,2,2,299010,2,7108602
2025-09-03 13:05:55.786,450824,2,2,2,2,299015,2,7108354
2025-09-03 13:05:55.786,450866,2,2,2,2,315398,2,7092223
2025-09-03 13:05:55.787,450835,2,2,2,2,299263,2,7108592
2025-09-03 13:05:55.787,450834,2,2,2,2,299250,2,7108574
2025-09-03 13:05:55.787,450835,2,2,2,2,299235,2,7108560
2025-09-03 13:05:55.787,450830,2,2,2,2,299154,2,7108409
2025-09-03 13:05:55.788,450822,2,2,2,2,299140,2,7108448
2025-09-03 13:05:55.788,450818,2,2,2,2,299116,2,7108341
2025-09-03 13:05:55.789,450768,2,2,2,2,298979,2,7108119
2025-09-03 13:05:55.789,450667,2,2,2,2,298870,2,5011100
2025-09-03 13:05:55.789,450581,2,2,2,2,298777,2,5011050
2025-09-03 13:05:55.789,450573,2,2,2,2,298755,2,7091719
2025-09-03 13:05:55.790,450561,2,2,2,2,298911,2,7108046
2025-09-03 13:05:55.790,450786,2,2,2,2,298866,2,7107863
2025-09-03 13:05:55.790,450696,2,2,2,2,298764,2,7108069
2025-09-03 13:05:55.791,450620,2,2,2,2,298741,2,7091591
2025-09-03 13:05:55.791,450673,2,2,2,2,298654,2,7107945
2025-09-03 13:05:55.791,450665,2,2,2,2,298635,2,7107850
2025-09-03 13:05:55.791,450578,2,2,2,2,314955,2,2897054
2025-09-03 13:05:55.792,434160,2,2,2,2,298751,2,7107623
2025-09-03 13:05:55.792,434139,2,2,2,2,298718,2,7091452
2025-09-03 13:05:55.792,442255,2,2,2,2,315012,2,2913436
2025-09-03 13:05:55.792,433978,2,2,2,2,298525,2,7107628
2025-09-03 13:05:55.793,450411,2,2,2,2,314885,2,2913289
2025-09-03 13:05:55.793,434022,2,2,2,2,298490,2,5010420
2025-09-03 13:05:55.793,434027,2,2,2,2,298483,2,7107553
2025-09-03 13:05:55.793,434024,2,2,2,2,314854,2,2913161
2025-09-03 13:05:55.794,433958,2,2,2,2,298452,2,7107375
2025-09-03 13:05:55.794,433934,2,2,2,2,298347,2,7107330
2025-09-03 13:05:55.794,450543,2,2,2,2,314878,2,2896788
2025-09-03 13:05:55.794,434060,2,2,2,2,298386,2,7107358
2025-09-03 13:05:55.795,434021,2,2,2,2,298337,2,2912996
2025-09-03 13:05:55.795,450315,2,2,2,2,314626,2,2912884
2025-09-03 13:05:55.795,433912,2,2,2,2,298214,2,7107085
2025-09-03 13:05:55.795,433888,2,2,2,2,298116,2,7107298
2025-09-03 13:05:55.796,450227,2,2,2,2,298021,2,7090813
2025-09-03 13:05:55.796,433808,2,2,2,2,314385,2,2912866
2025-09-03 13:05:55.796,433713,2,2,2,2,298141,2,7107039
2025-09-03 13:05:55.797,433761,2,2,2,2,298115,2,7106940
2025-09-03 13:05:55.797,433687,2,2,2,2,298087,2,7106844
2025-09-03 13:05:55.797,450062,2,2,2,2,298005,2,7090435
2025-09-03 13:05:55.798,441866,2,2,2,2,314357,2,2912670
2025-09-03 13:05:55.798,450302,2,2,2,2,314304,2,2896261
2025-09-03 13:05:55.798,433917,2,2,2,2,297878,2,5009781
2025-09-03 13:05:55.798,450048,2,2,2,2,297932,2,7090503
2025-09-03 13:05:55.799,433694,2,2,2,2,297875,2,7106920
2025-09-03 13:05:55.799,450161,2,2,2,2,314291,2,2912622
2025-09-03 13:05:55.799,433783,2,2,2,2,297866,2,7106852
2025-09-03 13:05:55.800,433781,2,2,2,2,297852,2,5009683
2025-09-03 13:05:55.800,433721,2,2,2,2,297781,2,7090441
2025-09-03 13:05:55.800,450161,2,2,2,2,314171,2,2912484
2025-09-03 13:05:55.801,433701,2,2,2,2,297737,2,7106769
2025-09-03 13:05:55.801,433693,2,2,2,2,297973,2,7106687
2025-09-03 13:05:55.801,433761,2,2,2,2,297968,2,2912377
2025-09-03 13:05:55.801,433679,2,2,2,2,297941,2,7090205
2025-09-03 13:05:55.802,450295,2,2,2,2,314233,2,2912504
2025-09-03 13:05:55.802,450285,2,2,2,2,314184,2,2896097
2025-09-03 13:05:55.802,433894,2,2,2,2,297752,2,7106763
2025-09-03 13:05:55.802,433820,2,2,2,2,297732,2,2912372
2025-09-03 13:05:55.803,433876,2,2,2,2,297719,2,7090207
2025-09-03 13:05:55.803,433800,2,2,2,2,297697,2,7106565
2025-09-03 13:05:55.803,450168,2,2,2,2,313987,2,2904033
2025-09-03 13:05:55.803,450127,2,2,2,2,313903,2,7090052
2025-09-03 13:05:55.804,433766,2,2,2,2,297500,2,5009256
2025-09-03 13:05:55.804,433693,2,2,2,2,297478,2,7106315
2025-09-03 13:05:55.804,433681,2,2,2,2,297715,2,7106541
2025-09-03 13:05:55.804,450053,2,2,2,2,314038,2,2903947
2025-09-03 13:05:55.805,450045,2,2,2,2,314054,2,7090034
2025-09-03 13:05:55.805,433664,2,2,2,2,313981,2,2912096
2025-09-03 13:05:55.805,433664,2,2,2,2,297583,2,2912009
2025-09-03 13:05:55.805,433657,2,2,2,2,297503,2,7106283
2025-09-03 13:05:55.806,433651,2,2,2,2,297490,2,7106261
2025-09-03 13:05:55.806,450044,2,2,2,2,297486,2,7089800
2025-09-03 13:05:55.806,450049,2,2,2,2,297478,2,7089786
2025-09-03 13:05:55.806,433646,2,2,2,2,297445,2,7106061
2025-09-03 13:05:55.807,441757,2,2,2,2,313732,2,2911970
2025-09-03 13:05:55.807,433546,2,2,2,2,297315,2,7106170
2025-09-03 13:05:55.807,433530,2,2,2,2,297224,2,7106067
2025-09-03 13:05:55.807,433518,2,2,2,2,297455,2,5008880
2025-09-03 13:05:55.808,449838,2,2,2,2,297446,2,7089597
2025-09-03 13:05:55.808,449911,2,2,2,2,313790,2,2903436
2025-09-03 13:05:55.808,433608,2,2,2,2,297445,2,7105991
2025-09-03 13:05:55.808,433607,2,2,2,2,297371,2,7105848
2025-09-03 13:05:55.809,433545,2,2,2,2,297363,2,5008741
2025-09-03 13:05:55.809,441729,2,2,2,2,313725,2,2911493
2025-09-03 13:05:55.809,441628,2,2,2,2,313599,2,2903409
2025-09-03 13:05:55.810,433416,2,2,2,2,297118,2,7105801
2025-09-03 13:05:55.810,450034,2,2,2,2,297152,2,7089345
2025-09-03 13:05:55.810,433634,2,2,2,2,297057,2,5008502
2025-09-03 13:05:55.810,433617,2,2,2,2,296969,2,7089167
2025-09-03 13:05:55.811,433529,2,2,2,2,297114,2,7105745
2025-09-03 13:05:55.811,433527,2,2,2,2,297102,2,7105595
2025-09-03 13:05:55.811,433518,2,2,2,2,297081,2,5008410
2025-09-03 13:05:55.812,449831,2,2,2,2,296996,2,7089150
2025-09-03 13:05:55.812,433444,2,2,2,2,296983,2,7105512
2025-09-03 13:05:55.812,433436,2,2,2,2,296958,2,7105422
2025-09-03 13:05:55.812,449802,2,2,2,2,313314,2,2894702
2025-09-03 13:05:55.813,433410,2,2,2,2,296846,2,5008148
2025-09-03 13:05:55.813,441595,2,2,2,2,313208,2,2911229
2025-09-03 13:05:55.813,433394,2,2,2,2,296742,2,7089126
2025-09-03 13:05:55.813,433390,2,2,2,2,296729,2,7105430
2025-09-03 13:05:55.814,449690,2,2,2,2,313340,2,2894702
2025-09-03 13:05:55.814,433283,2,2,2,2,296858,2,5008126
2025-09-03 13:05:55.814,433271,2,2,2,2,296837,2,7105183
2025-09-03 13:05:55.814,441463,2,2,2,2,313207,2,2910860
2025-09-03 13:05:55.815,433279,2,2,2,2,296814,2,7105154
2025-09-03 13:05:55.815,433210,2,2,2,2,296800,2,7105069
2025-09-03 13:05:55.815,449651,2,2,2,2,313106,2,7088666
2025-09-03 13:05:55.815,433271,2,2,2,2,296715,2,7105040
2025-09-03 13:05:55.816,441463,2,2,2,2,313081,2,2910720
2025-09-03 13:05:55.816,433266,2,2,2,2,296677,2,7105259
2025-09-03 13:05:55.816,433197,2,2,2,2,296598,2,7105240
2025-09-03 13:05:55.816,449567,2,2,2,2,313025,2,7088770
2025-09-03 13:05:55.817,433154,2,2,2,2,296475,2,7105049
2025-09-03 13:05:55.817,441498,2,2,2,2,313056,2,2910612
2025-09-03 13:05:55.817,433210,2,2,2,2,296566,2,7104812
2025-09-03 13:05:55.818,433173,2,2,2,2,296456,2,7105017
2025-09-03 13:05:55.818,433149,2,2,2,2,296430,2,5007766
2025-09-03 13:05:55.818,433154,2,2,2,2,296424,2,7104902
2025-09-03 13:05:55.818,441342,2,2,2,2,312727,2,2910578
2025-09-03 13:05:55.819,433144,2,2,2,2,296323,2,7104792
2025-09-03 13:05:55.819,433130,2,2,2,2,296295,2,7104764
2025-09-03 13:05:55.819,433050,2,2,2,2,296201,2,5007515
2025-09-03 13:05:55.819,449478,2,2,2,2,296430,2,7088250
2025-09-03 13:05:55.820,441206,2,2,2,2,312721,2,2910234
2025-09-03 13:05:55.820,449306,2,2,2,2,312681,2,2902252
2025-09-03 13:05:55.820,432900,2,2,2,2,296194,2,7104574
2025-09-03 13:05:55.820,433124,2,2,2,2,296090,2,5007378
2025-09-03 13:05:55.821,449333,2,2,2,2,295972,2,7088056
2025-09-03 13:05:55.821,432921,2,2,2,2,296188,2,7087912
2025-09-03 13:05:55.821,432893,2,2,2,2,296091,2,7104505
2025-09-03 13:05:55.821,432867,2,2,2,2,296050,2,7104461
2025-09-03 13:05:55.822,432799,2,2,2,2,295967,2,7104307
2025-09-03 13:05:55.822,432852,2,2,2,2,295944,2,7087887
2025-09-03 13:05:55.822,432845,2,2,2,2,295926,2,7087859
2025-09-03 13:05:55.823,449170,2,2,2,2,312257,2,2901635
2025-09-03 13:05:55.823,432778,2,2,2,2,295820,2,7104101
2025-09-03 13:05:55.823,432767,2,2,2,2,295800,2,5006854
2025-09-03 13:05:55.823,449221,2,2,2,2,295729,2,7087868
2025-09-03 13:05:55.824,432836,2,2,2,2,295716,2,7104230
2025-09-03 13:05:55.824,449143,2,2,2,2,312075,2,2893443
2025-09-03 13:05:55.824,449136,2,2,2,2,312315,2,2893415
2025-09-03 13:05:55.824,432740,2,2,2,2,295910,2,7104010
2025-09-03 13:05:55.825,432668,2,2,2,2,295826,2,2909678
2025-09-03 13:05:55.825,432659,2,2,2,2,295806,2,7103952
2025-09-03 13:05:55.825,432649,2,2,2,2,295779,2,7103848
2025-09-03 13:05:55.825,449273,2,2,2,2,312073,2,2893311
2025-09-03 13:05:55.826,449265,2,2,2,2,295673,2,7087584
2025-09-03 13:05:55.826,441068,2,2,2,2,312040,2,2909574
2025-09-03 13:05:55.826,441066,2,2,2,2,311961,2,2909553
2025-09-03 13:05:55.826,432869,2,2,2,2,295560,2,7103773
2025-09-03 13:05:55.827,432794,2,2,2,2,295535,2,7103740
2025-09-03 13:05:55.827,432795,2,2,2,2,295528,2,7103723
2025-09-03 13:05:55.827,432881,2,2,2,2,295540,2,7103723
2025-09-03 13:05:55.828,432878,2,2,2,2,295445,2,7103547
2025-09-03 13:05:55.828,432798,2,2,2,2,295676,2,5006364
2025-09-03 13:05:55.828,432785,2,2,2,2,295652,2,7103740
2025-09-03 13:05:55.828,449166,2,2,2,2,295639,2,7087302
2025-09-03 13:05:55.829,449156,2,2,2,2,311927,2,2901109
2025-09-03 13:05:55.829,449152,2,2,2,2,311880,2,2901022
2025-09-03 13:05:55.829,432757,2,2,2,2,295447,2,7103493
2025-09-03 13:05:55.830,449092,2,2,2,2,295421,2,7087078
2025-09-03 13:05:55.830,449038,2,2,2,2,311678,2,2900758
2025-09-03 13:05:55.831,432660,2,2,2,2,295289,2,7103241
2025-09-03 13:05:55.831,449040,2,2,2,2,295211,2,7087091
2025-09-03 13:05:55.831,449047,2,2,2,2,295206,2,7087046
2025-09-03 13:05:55.832,440852,2,2,2,2,311565,2,2900869
2025-09-03 13:05:55.832,432654,2,2,2,2,295422,2,7103281
2025-09-03 13:05:55.832,432643,2,2,2,2,295401,2,7103257
2025-09-03 13:05:55.832,432630,2,2,2,2,295317,2,5006078
2025-09-03 13:05:55.833,432537,2,2,2,2,295265,2,7103113
2025-09-03 13:05:55.833,448902,2,2,2,2,311555,2,2900584
2025-09-03 13:05:55.833,432496,2,2,2,2,295071,2,7102980
2025-09-03 13:05:55.834,432494,2,2,2,2,295061,2,5006068
2025-09-03 13:05:55.834,432426,2,2,2,2,295110,2,7103203
2025-09-03 13:05:55.834,432423,2,2,2,2,294965,2,7103184
2025-09-03 13:05:55.834,432481,2,2,2,2,295014,2,7103101
2025-09-03 13:05:55.835,432409,2,2,2,2,294923,2,7103011
2025-09-03 13:05:55.835,432626,2,2,2,2,295061,2,2908574
2025-09-03 13:05:55.835,432606,2,2,2,2,294966,2,7086391
2025-09-03 13:05:55.836,432529,2,2,2,2,294942,2,7102747
2025-09-03 13:05:55.836,448900,2,2,2,2,294916,2,7086590
2025-09-03 13:05:55.836,448885,2,2,2,2,294897,2,7086562
2025-09-03 13:05:55.836,432486,2,2,2,2,294810,2,2908545
2025-09-03 13:05:55.837,432404,2,2,2,2,294719,2,7086369
2025-09-03 13:05:55.837,432406,2,2,2,2,294773,2,7102737
2025-09-03 13:05:55.837,432406,2,2,2,2,294764,2,7102718
2025-09-03 13:05:55.837,448820,2,2,2,2,294684,2,7086310
2025-09-03 13:05:55.838,432393,2,2,2,2,294666,2,7102600
2025-09-03 13:05:55.838,448766,2,2,2,2,278512,2,2900072
2025-09-03 13:05:55.838,432363,2,2,2,2,294870,2,7102469
2025-09-03 13:05:55.838,432278,2,2,2,2,294779,2,7102690
2025-09-03 13:05:55.839,448648,2,2,2,2,278306,2,7086203
2025-09-03 13:05:55.839,440323,2,2,2,2,278134,2,2899834
2025-09-03 13:05:55.840,432368,2,2,2,2,294422,2,7085843
2025-09-03 13:05:55.840,432366,2,2,2,2,294404,2,4988920
2025-09-03 13:05:55.840,448701,2,2,2,2,294634,2,7085974
2025-09-03 13:05:55.840,432266,2,2,2,2,294536,2,7085932
2025-09-03 13:05:55.841,440443,2,2,2,2,278126,2,2891526
2025-09-03 13:05:55.841,432244,2,2,2,2,294429,2,7085801
2025-09-03 13:05:55.841,432244,2,2,2,2,294420,2,7085717
2025-09-03 13:05:55.841,448589,2,2,2,2,294400,2,7085685
2025-09-03 13:05:55.842,448548,2,2,2,2,294376,2,7085619
2025-09-03 13:05:55.842,448533,2,2,2,2,277899,2,2899692
2025-09-03 13:05:55.842,448527,2,2,2,2,277876,2,2899595
2025-09-03 13:05:55.842,432140,2,2,2,2,294246,2,7085616
2025-09-03 13:05:55.843,432142,2,2,2,2,294169,2,7085593
2025-09-03 13:05:55.843,432147,2,2,2,2,294162,2,7085578
2025-09-03 13:05:55.843,440339,2,2,2,2,278009,2,2899357
2025-09-03 13:05:55.844,448510,2,2,2,2,277947,2,2891119
2025-09-03 13:05:55.844,432107,2,2,2,2,294271,2,4988172
2025-09-03 13:05:55.844,432099,2,2,2,2,294251,2,4988405
2025-09-03 13:05:55.844,432091,2,2,2,2,294167,2,7085500
2025-09-03 13:05:55.845,432083,2,2,2,2,294140,2,7085371
2025-09-03 13:05:55.845,448387,2,2,2,2,277728,2,7085336
2025-09-03 13:05:55.845,431987,2,2,2,2,294021,2,7085306
2025-09-03 13:05:55.845,431968,2,2,2,2,293997,2,7085203
2025-09-03 13:05:55.846,431878,2,2,2,2,277517,2,2890853
2025-09-03 13:05:55.846,432114,2,2,2,2,294129,2,7085309
2025-09-03 13:05:55.846,432115,2,2,2,2,294115,2,7085287
2025-09-03 13:05:55.846,448491,2,2,2,2,277704,2,2890892
2025-09-03 13:05:55.847,432020,2,2,2,2,293992,2,7085159
2025-09-03 13:05:55.847,440191,2,2,2,2,277516,2,2890758
2025-09-03 13:05:55.847,431926,2,2,2,2,293878,2,7085036
2025-09-03 13:05:55.847,431905,2,2,2,2,293784,2,7084998
2025-09-03 13:05:55.848,431899,2,2,2,2,293766,2,7084913
2025-09-03 13:05:55.848,431898,2,2,2,2,293751,2,7084828
2025-09-03 13:05:55.848,431882,2,2,2,2,293729,2,7085054
2025-09-03 13:05:55.848,440069,2,2,2,2,277263,2,2890730
2025-09-03 13:05:55.849,431879,2,2,2,2,293644,2,7085030
2025-09-03 13:05:55.849,431887,2,2,2,2,293638,2,4987807
2025-09-03 13:05:55.849,431888,2,2,2,2,293882,2,4987796
2025-09-03 13:05:55.849,448272,2,2,2,2,293872,2,7084933
2025-09-03 13:05:55.850,431897,2,2,2,2,293867,2,7084850
2025-09-03 13:05:55.850,431898,2,2,2,2,293859,2,7084837
2025-09-03 13:05:55.850,431972,2,2,2,2,293856,2,4987678
2025-09-03 13:05:55.851,448322,2,2,2,2,293843,2,7084811
2025-09-03 13:05:55.851,431893,2,2,2,2,293754,2,7084780
2025-09-03 13:05:55.851,431874,2,2,2,2,293661,2,7084688
2025-09-03 13:05:55.851,448239,2,2,2,2,277248,2,2898548
2025-09-03 13:05:55.852,431772,2,2,2,2,293604,2,7084565
2025-09-03 13:05:55.852,439953,2,2,2,2,277137,2,2890490
2025-09-03 13:05:55.852,431816,2,2,2,2,293568,2,7084738
2025-09-03 13:05:55.853,448099,2,2,2,2,276997,2,2898460
2025-09-03 13:05:55.853,431867,2,2,2,2,293521,2,7084445
2025-09-03 13:05:55.853,431766,2,2,2,2,293405,2,7084391
2025-09-03 13:05:55.853,431731,2,2,2,2,293357,2,2890229
2025-09-03 13:05:55.854,431643,2,2,2,2,293243,2,7084345
2025-09-03 13:05:55.854,448023,2,2,2,2,276809,2,2890084
2025-09-03 13:05:55.854,431620,2,2,2,2,293134,2,7084286
2025-09-03 13:05:55.855,431615,2,2,2,2,293374,2,2889960
2025-09-03 13:05:55.855,431617,2,2,2,2,293369,2,7084178
2025-09-03 13:05:55.855,431612,2,2,2,2,293352,2,7084151
2025-09-03 13:05:55.855,447980,2,2,2,2,276872,2,2897939
2025-09-03 13:05:55.856,431587,2,2,2,2,293237,2,7084278
2025-09-03 13:05:55.856,439674,2,2,2,2,276734,2,2889837
2025-09-03 13:05:55.856,431400,2,2,2,2,293093,2,7084044
2025-09-03 13:05:55.857,431377,2,2,2,2,292991,2,7084000
2025-09-03 13:05:55.857,447949,2,2,2,2,292878,2,7083881
2025-09-03 13:05:55.857,431515,2,2,2,2,293106,2,7084031
2025-09-03 13:05:55.857,431495,2,2,2,2,276630,2,2889622
2025-09-03 13:05:55.858,431403,2,2,2,2,292907,2,7083807
2025-09-03 13:05:55.858,431382,2,2,2,2,292871,2,7083759
2025-09-03 13:05:55.858,431380,2,2,2,2,292858,2,7083673
2025-09-03 13:05:55.858,447802,2,2,2,2,292852,2,7083660
2025-09-03 13:05:55.859,431386,2,2,2,2,292842,2,2889333
2025-09-03 13:05:55.859,431377,2,2,2,2,292819,2,7083539
2025-09-03 13:05:55.859,431365,2,2,2,2,292732,2,7083764
2025-09-03 13:05:55.859,431364,2,2,2,2,292716,2,7083675
2025-09-03 13:05:55.860,447755,2,2,2,2,292640,2,7083660
2025-09-03 13:05:55.860,431377,2,2,2,2,276245,2,2889338
2025-09-03 13:05:55.860,439569,2,2,2,2,276233,2,2889313
2025-09-03 13:05:55.860,431373,2,2,2,2,292852,2,7083526
2025-09-03 13:05:55.861,431380,2,2,2,2,292847,2,7083513
2025-09-03 13:05:55.861,431385,2,2,2,2,292843,2,7083500
2025-09-03 13:05:55.861,447772,2,2,2,2,292832,2,7083450
2025-09-03 13:05:55.862,439650,2,2,2,2,276365,2,2897265
2025-09-03 13:05:55.862,447753,2,2,2,2,276298,2,2888964
2025-09-03 13:05:55.862,431343,2,2,2,2,292615,2,4986265
2025-09-03 13:05:55.862,447682,2,2,2,2,292599,2,7083388
2025-09-03 13:05:55.863,431310,2,2,2,2,292570,2,7083288
2025-09-03 13:05:55.863,431297,2,2,2,2,292481,2,7083260
2025-09-03 13:05:55.863,447620,2,2,2,2,276087,2,2897130
2025-09-03 13:05:55.863,431242,2,2,2,2,292464,2,7083230
2025-09-03 13:05:55.864,431252,2,2,2,2,292459,2,4986009
2025-09-03 13:05:55.864,431245,2,2,2,2,275994,2,2888832
2025-09-03 13:05:55.864,431201,2,2,2,2,292577,2,7083250
2025-09-03 13:05:55.865,447494,2,2,2,2,276031,2,2888847
2025-09-03 13:05:55.865,447742,2,2,2,2,292398,2,7083126
2025-09-03 13:05:55.865,431349,2,2,2,2,292381,2,2888800
2025-09-03 13:05:55.865,431341,2,2,2,2,292359,2,7083013
2025-09-03 13:05:55.866,431259,2,2,2,2,292333,2,7082982
2025-09-03 13:05:55.866,431236,2,2,2,2,292235,2,7082884
2025-09-03 13:05:55.866,447605,2,2,2,2,292140,2,7082850
2025-09-03 13:05:55.866,431210,2,2,2,2,292115,2,7082760
2025-09-03 13:05:55.867,439397,2,2,2,2,275720,2,2888698
2025-09-03 13:05:55.867,431211,2,2,2,2,292104,2,7082996
2025-09-03 13:05:55.867,431220,2,2,2,2,292103,2,7082990
2025-09-03 13:05:55.867,447566,2,2,2,2,275959,2,7082906
2025-09-03 13:05:55.868,431209,2,2,2,2,292330,2,7082887
2025-09-03 13:05:55.868,431125,2,2,2,2,292303,2,7082789
2025-09-03 13:05:55.868,447493,2,2,2,2,275830,2,2896647
2025-09-03 13:05:55.868,431104,2,2,2,2,292201,2,7082745
2025-09-03 13:05:55.869,447477,2,2,2,2,275723,2,7082651
2025-09-03 13:05:55.869,439195,2,2,2,2,275596,2,2896389
2025-09-03 13:05:55.870,431061,2,2,2,2,291958,2,7082728
2025-09-03 13:05:55.870,430979,2,2,2,2,291867,2,4985479
2025-09-03 13:05:55.870,447311,2,2,2,2,292090,2,7082592
2025-09-03 13:05:55.870,430948,2,2,2,2,292066,2,7082501
2025-09-03 13:05:55.871,439137,2,2,2,2,275603,2,2888180
2025-09-03 13:05:55.871,430877,2,2,2,2,291977,2,7082462
2025-09-03 13:05:55.871,430868,2,2,2,2,291958,2,7082435
2025-09-03 13:05:55.871,430856,2,2,2,2,291937,2,4985188
2025-09-03 13:05:55.872,447232,2,2,2,2,291857,2,7082251
2025-09-03 13:05:55.872,431102,2,2,2,2,291842,2,7082483
2025-09-03 13:05:55.872,447486,2,2,2,2,275443,2,2896286
2025-09-03 13:05:55.872,431090,2,2,2,2,291739,2,7082299
2025-09-03 13:05:55.873,431080,2,2,2,2,291716,2,4985119
2025-09-03 13:05:55.873,431082,2,2,2,2,291640,2,7082255
2025-09-03 13:05:55.873,431082,2,2,2,2,291627,2,7082232
2025-09-03 13:05:55.873,431003,2,2,2,2,291597,2,7082132
2025-09-03 13:05:55.874,447376,2,2,2,2,275449,2,2887800
2025-09-03 13:05:55.874,430982,2,2,2,2,291809,2,7082011
2025-09-03 13:05:55.874,430962,2,2,2,2,291720,2,4985078
2025-09-03 13:05:55.874,430883,2,2,2,2,291629,2,7082164
2025-09-03 13:05:55.875,447242,2,2,2,2,275195,2,7081991
2025-09-03 13:05:55.875,447227,2,2,2,2,275168,2,7081884
2025-09-03 13:05:55.875,430826,2,2,2,2,291458,2,7081840
2025-09-03 13:05:55.876,430749,2,2,2,2,275049,2,2887433
2025-09-03 13:05:55.876,430792,2,2,2,2,291336,2,7081948
2025-09-03 13:05:55.876,430788,2,2,2,2,291575,2,7081926
2025-09-03 13:05:55.876,447103,2,2,2,2,275176,2,2887533
2025-09-03 13:05:55.877,430716,2,2,2,2,291483,2,7081752
2025-09-03 13:05:55.877,438814,2,2,2,2,275060,2,2887400
2025-09-03 13:05:55.877,438785,2,2,2,2,274956,2,2887288
2025-09-03 13:05:55.877,430825,2,2,2,2,291306,2,7081486
2025-09-03 13:05:55.878,430747,2,2,2,2,291213,2,7081710
2025-09-03 13:05:55.878,430802,2,2,2,2,291121,2,7081650
2025-09-03 13:05:55.878,447188,2,2,2,2,291113,2,7081602
2025-09-03 13:05:55.879,430790,2,2,2,2,291076,2,7081479
2025-09-03 13:05:55.879,430721,2,2,2,2,291313,2,4984301
2025-09-03 13:05:55.879,430723,2,2,2,2,291303,2,4984218
2025-09-03 13:05:55.879,447039,2,2,2,2,291288,2,7081347
2025-09-03 13:05:55.880,447111,2,2,2,2,274822,2,2887012
2025-09-03 13:05:55.880,447106,2,2,2,2,274808,2,2886925
2025-09-03 13:05:55.880,430714,2,2,2,2,291181,2,7081465
2025-09-03 13:05:55.881,447054,2,2,2,2,291100,2,7081407
2025-09-03 13:05:55.881,430618,2,2,2,2,291072,2,7081340
2025-09-03 13:05:55.881,430618,2,2,2,2,291061,2,7081323
2025-09-03 13:05:55.881,447005,2,2,2,2,274637,2,2886943
2025-09-03 13:05:55.882,430604,2,2,2,2,290958,2,7081213
2025-09-03 13:05:55.882,438774,2,2,2,2,274542,2,2886882
2025-09-03 13:05:55.882,430580,2,2,2,2,274461,2,2886800
2025-09-03 13:05:55.882,430572,2,2,2,2,290831,2,7081016
2025-09-03 13:05:55.883,430559,2,2,2,2,291059,2,7080990
2025-09-03 13:05:55.883,430474,2,2,2,2,290964,2,7081211
2025-09-03 13:05:55.883,430468,2,2,2,2,290952,2,7081194
2025-09-03 13:05:55.883,430462,2,2,2,2,290938,2,2886806
2025-09-03 13:05:55.884,438641,2,2,2,2,274534,2,2886780
2025-09-03 13:05:55.884,430436,2,2,2,2,290829,2,7081059
2025-09-03 13:05:55.884,430364,2,2,2,2,290808,2,7080974
2025-09-03 13:05:55.884,446773,2,2,2,2,290789,2,7080949
2025-09-03 13:05:55.885,446742,2,2,2,2,290778,2,7080901
2025-09-03 13:05:55.885,430344,2,2,2,2,290693,2,7080904
2025-09-03 13:05:55.885,430586,2,2,2,2,290671,2,7080750
2025-09-03 13:05:55.885,430563,2,2,2,2,290576,2,7080710
2025-09-03 13:05:55.886,430562,2,2,2,2,290566,2,4983797
2025-09-03 13:05:55.886,438779,2,2,2,2,274424,2,2886546
2025-09-03 13:05:55.887,446961,2,2,2,2,274371,2,2886519
2025-09-03 13:05:55.887,446953,2,2,2,2,290767,2,7080757
2025-09-03 13:05:55.887,430488,2,2,2,2,282481,2,4983539
2025-09-03 13:05:55.887,430541,2,2,2,2,290583,2,7080658
2025-09-03 13:05:55.888,430463,2,2,2,2,290558,2,7080564
2025-09-03 13:05:55.888,430458,2,2,2,2,290543,2,7080480
2025-09-03 13:05:55.888,430451,2,2,2,2,290459,2,7080455
2025-09-03 13:05:55.888,430448,2,2,2,2,290447,2,7080686
2025-09-03 13:05:55.889,438645,2,2,2,2,274055,2,2886301
2025-09-03 13:05:55.889,446827,2,2,2,2,273995,2,2886269
2025-09-03 13:05:55.889,446747,2,2,2,2,273927,2,2886164
2025-09-03 13:05:55.889,446746,2,2,2,2,274169,2,7080445
2025-09-03 13:05:55.890,430348,2,2,2,2,290530,2,7080348
2025-09-03 13:05:55.890,430325,2,2,2,2,290361,2,7080221
2025-09-03 13:05:55.890,430310,2,2,2,2,290402,2,7080193
2025-09-03 13:05:55.891,446616,2,2,2,2,273931,2,2886044
2025-09-03 13:05:55.891,430212,2,2,2,2,282091,2,2885998
2025-09-03 13:05:55.891,430186,2,2,2,2,290182,2,7080189
2025-09-03 13:05:55.891,438280,2,2,2,2,273691,2,2885766
2025-09-03 13:05:55.892,430080,2,2,2,2,290052,2,7079980
2025-09-03 13:05:55.892,446712,2,2,2,2,290288,2,7079950
2025-09-03 13:05:55.892,430316,2,2,2,2,282011,2,4983024
2025-09-03 13:05:55.892,446686,2,2,2,2,290109,2,7080074
2025-09-03 13:05:55.893,438418,2,2,2,2,273767,2,2885738
2025-09-03 13:05:55.893,430213,2,2,2,2,290064,2,7079948
2025-09-03 13:05:55.893,430141,2,2,2,2,290042,2,7079919
2025-09-03 13:05:55.893,430204,2,2,2,2,290027,2,4982681
2025-09-03 13:05:55.894,446576,2,2,2,2,290008,2,7079803
2025-09-03 13:05:55.894,438373,2,2,2,2,273540,2,2885399
2025-09-03 13:05:55.894,438298,2,2,2,2,273519,2,2885625
2025-09-03 13:05:55.894,430093,2,2,2,2,289807,2,7079891
2025-09-03 13:05:55.895,430084,2,2,2,2,290039,2,7079796
2025-09-03 13:05:55.895,430071,2,2,2,2,290010,2,7079734
2025-09-03 13:05:55.895,430064,2,2,2,2,289989,2,7079672
2025-09-03 13:05:55.896,446358,2,2,2,2,273469,2,2885245
2025-09-03 13:05:55.896,429972,2,2,2,2,281613,2,4982372
2025-09-03 13:05:55.896,429954,2,2,2,2,289774,2,7079677
2025-09-03 13:05:55.896,446257,2,2,2,2,289747,2,7079606
2025-09-03 13:05:55.897,446310,2,2,2,2,273202,2,2885220
2025-09-03 13:05:55.897,446238,2,2,2,2,273217,2,2885131
2025-09-03 13:05:55.897,429834,2,2,2,2,289543,2,7079401
2025-09-03 13:05:55.898,430062,2,2,2,2,281502,2,2884990
2025-09-03 13:05:55.898,429982,2,2,2,2,289662,2,7079192
2025-09-03 13:05:55.898,429966,2,2,2,2,289633,2,7079418
2025-09-03 13:05:55.898,446324,2,2,2,2,273149,2,2885011
2025-09-03 13:05:55.899,429935,2,2,2,2,289518,2,7079231
2025-09-03 13:05:55.899,429860,2,2,2,2,289498,2,7079208
2025-09-03 13:05:55.899,429850,2,2,2,2,289480,2,7079217
2025-09-03 13:05:55.900,446211,2,2,2,2,272960,2,2884833
2025-09-03 13:05:55.900,429811,2,2,2,2,289287,2,7079043
2025-09-03 13:05:55.900,429796,2,2,2,2,289519,2,7079017
2025-09-03 13:05:55.900,429716,2,2,2,2,273046,2,2884618
2025-09-03 13:05:55.901,429770,2,2,2,2,289343,2,7079154
2025-09-03 13:05:55.901,446063,2,2,2,2,272918,2,2884741
2025-09-03 13:05:55.901,445977,2,2,2,2,272882,2,2884638
2025-09-03 13:05:55.901,429569,2,2,2,2,289171,2,7078908
2025-09-03 13:05:55.902,429801,2,2,2,2,280952,2,2884501
2025-09-03 13:05:55.902,429716,2,2,2,2,289050,2,7078767
2025-09-03 13:05:55.902,429703,2,2,2,2,289028,2,7078672
2025-09-03 13:05:55.902,446074,2,2,2,2,272843,2,2884598
2025-09-03 13:05:55.903,446029,2,2,2,2,289234,2,7078812
2025-09-03 13:05:55.903,429667,2,2,2,2,272762,2,2884485
2025-09-03 13:05:55.903,429579,2,2,2,2,272664,2,2884377
2025-09-03 13:05:55.903,429550,2,2,2,2,289009,2,7078635
2025-09-03 13:05:55.904,429542,2,2,2,2,288925,2,7078545
2025-09-03 13:05:55.904,429540,2,2,2,2,288912,2,7078522
2025-09-03 13:05:55.904,429548,2,2,2,2,288905,2,7078515
2025-09-03 13:05:55.904,429550,2,2,2,2,272513,2,2884196
2025-09-03 13:05:55.905,429571,2,2,2,2,272521,2,2884198
2025-09-03 13:05:55.905,445974,2,2,2,2,272588,2,7078499
2025-09-03 13:05:55.905,429597,2,2,2,2,288901,2,4981267
2025-09-03 13:05:55.905,446029,2,2,2,2,288977,2,7078415
2025-09-03 13:05:55.906,429768,2,2,2,2,288925,2,7078652
2025-09-03 13:05:55.906,429786,2,2,2,2,288995,2,7078650
2025-09-03 13:05:55.906,429714,2,2,2,2,288915,2,7078556
2025-09-03 13:05:55.907,429691,2,2,2,2,280689,2,4981362
2025-09-03 13:05:55.907,429595,2,2,2,2,272392,2,2884096
2025-09-03 13:05:55.907,429568,2,2,2,2,272608,2,2883983
2025-09-03 13:05:55.907,445942,2,2,2,2,272520,2,2883954
2025-09-03 13:05:55.908,429554,2,2,2,2,288891,2,7078167
2025-09-03 13:05:55.908,429557,2,2,2,2,288883,2,7078146
2025-09-03 13:05:55.908,445937,2,2,2,2,288802,2,7078345
2025-09-03 13:05:55.908,429539,2,2,2,2,288774,2,7078341
2025-09-03 13:05:55.909,429536,2,2,2,2,272378,2,2883947
2025-09-03 13:05:55.909,429470,2,2,2,2,288747,2,4981010
2025-09-03 13:05:55.909,429464,2,2,2,2,288665,2,4980982
2025-09-03 13:05:55.909,429448,2,2,2,2,280446,2,4980879
2025-09-03 13:05:55.910,429371,2,2,2,2,288546,2,7077933
2025-09-03 13:05:55.910,445816,2,2,2,2,272143,2,2883603
2025-09-03 13:05:55.910,445810,2,2,2,2,272383,2,2883834
2025-09-03 13:05:55.910,429427,2,2,2,2,288756,2,7078119
2025-09-03 13:05:55.911,429420,2,2,2,2,280479,2,4980874
2025-09-03 13:05:55.911,429326,2,2,2,2,288562,2,7077918
2025-09-03 13:05:55.911,429562,2,2,2,2,288525,2,7143414
2025-09-03 13:05:55.911,429542,2,2,2,2,288492,2,7143306
2025-09-03 13:05:55.912,445838,2,2,2,2,272074,2,7143199
2025-09-03 13:05:55.912,429430,2,2,2,2,271974,2,2949108
2025-09-03 13:05:55.912,429342,2,2,2,2,280065,2,2949003
2025-09-03 13:05:55.912,429311,2,2,2,2,288470,2,7143190
2025-09-03 13:05:55.913,429209,2,2,2,2,288361,2,7143070
2025-09-03 13:05:55.913,429190,2,2,2,2,288266,2,7142968
2025-09-03 13:05:55.913,445561,2,2,2,2,288245,2,7142942
2025-09-03 13:05:55.913,429167,2,2,2,2,279965,2,2948616
2025-09-03 13:05:55.914,429095,2,2,2,2,288201,2,7143151
2025-09-03 13:05:55.914,429163,2,2,2,2,288131,2,7143071
2025-09-03 13:05:55.914,429177,2,2,2,2,288135,2,7143064
2025-09-03 13:05:55.914,445563,2,2,2,2,288063,2,7143047
2025-09-03 13:05:55.915,429179,2,2,2,2,288116,2,7143027
2025-09-03 13:05:55.915,429118,2,2,2,2,288108,2,7142945
2025-09-03 13:05:55.915,429113,2,2,2,2,288030,2,7142927
2025-09-03 13:05:55.915,429077,2,2,2,2,288245,2,7142883
2025-09-03 13:05:55.916,445692,2,2,2,2,271827,2,7142778
2025-09-03 13:05:55.916,429296,2,2,2,2,271739,2,2948381
2025-09-03 13:05:55.916,429215,2,2,2,2,271638,2,2948598
2025-09-03 13:05:55.917,429213,2,2,2,2,288007,2,7142890
2025-09-03 13:05:55.917,445625,2,2,2,2,287998,2,7142845
2025-09-03 13:05:55.917,445620,2,2,2,2,287981,2,7142794
2025-09-03 13:05:55.918,429172,2,2,2,2,271479,2,2948365
2025-09-03 13:05:55.918,429165,2,2,2,2,287848,2,7142652
2025-09-03 13:05:55.918,429168,2,2,2,2,287767,2,7142638
2025-09-03 13:05:55.918,445553,2,2,2,2,287759,2,7142625
2025-09-03 13:05:55.919,429169,2,2,2,2,287745,2,7142540
2025-09-03 13:05:55.919,445469,2,2,2,2,271550,2,2948192
2025-09-03 13:05:55.919,445450,2,2,2,2,271488,2,2948349
2025-09-03 13:05:55.919,429052,2,2,2,2,287850,2,7142622
2025-09-03 13:05:55.920,429043,2,2,2,2,287769,2,5045382
2025-09-03 13:05:55.920,428956,2,2,2,2,271331,2,2948097
2025-09-03 13:05:55.921,429022,2,2,2,2,287645,2,7142381
2025-09-03 13:05:55.921,445324,2,2,2,2,287681,2,7142278
2025-09-03 13:05:55.921,445305,2,2,2,2,287523,2,7142207
2025-09-03 13:05:55.922,428914,2,2,2,2,287493,2,7142389
2025-09-03 13:05:55.922,428923,2,2,2,2,287492,2,7142380
2025-09-03 13:05:55.922,428941,2,2,2,2,287495,2,7142376
2025-09-03 13:05:55.922,428951,2,2,2,2,287495,2,7142370
2025-09-03 13:05:55.923,428959,2,2,2,2,271109,2,2947993
2025-09-03 13:05:55.923,445427,2,2,2,2,271111,2,2947983
2025-09-03 13:05:55.923,445437,2,2,2,2,271108,2,2947973
2025-09-03 13:05:55.923,445419,2,2,2,2,271335,2,2947870
2025-09-03 13:05:55.924,428945,2,2,2,2,287621,2,7142131
2025-09-03 13:05:55.924,428992,2,2,2,2,287531,2,7142091
2025-09-03 13:05:55.924,428849,2,2,2,2,287502,2,7141924
2025-09-03 13:05:55.924,428817,2,2,2,2,287456,2,7142126
2025-09-03 13:05:55.925,428801,2,2,2,2,287360,2,7142023
2025-09-03 13:05:55.925,429052,2,2,2,2,279146,2,2947687
2025-09-03 13:05:55.925,429043,2,2,2,2,279063,2,5044747
2025-09-03 13:05:55.925,429031,2,2,2,2,270856,2,2947560
2025-09-03 13:05:55.926,429010,2,2,2,2,287470,2,7141693
2025-09-03 13:05:55.926,445304,2,2,2,2,287432,2,7141645
2025-09-03 13:05:55.926,445252,2,2,2,2,270883,2,7141858
2025-09-03 13:05:55.926,445198,2,2,2,2,287235,2,7141753
2025-09-03 13:05:55.927,428797,2,2,2,2,270751,2,2947343
2025-09-03 13:05:55.927,428775,2,2,2,2,287106,2,7141601
2025-09-03 13:05:55.927,428694,2,2,2,2,287081,2,7141503
2025-09-03 13:05:55.927,428680,2,2,2,2,286990,2,5044254
2025-09-03 13:05:55.928,445064,2,2,2,2,286983,2,7141424
2025-09-03 13:05:55.928,428741,2,2,2,2,287225,2,7141624
2025-09-03 13:05:55.928,428665,2,2,2,2,270817,2,2947227
2025-09-03 13:05:55.928,445031,2,2,2,2,270726,2,2947189
2025-09-03 13:05:55.929,428553,2,2,2,2,287002,2,7141380
2025-09-03 13:05:55.929,428792,2,2,2,2,286966,2,7141308
2025-09-03 13:05:55.929,428776,2,2,2,2,286932,2,7141239
2025-09-03 13:05:55.930,445044,2,2,2,2,270342,2,2946973
2025-09-03 13:05:55.930,428648,2,2,2,2,278766,2,5044092
2025-09-03 13:05:55.930,428573,2,2,2,2,278684,2,5044065
2025-09-03 13:05:55.930,444950,2,2,2,2,286921,2,7141125
2025-09-03 13:05:55.931,444921,2,2,2,2,270389,2,2946689
2025-09-03 13:05:55.931,444912,2,2,2,2,270337,2,2946666
2025-09-03 13:05:55.931,428520,2,2,2,2,270322,2,7140886
2025-09-03 13:05:55.932,428514,2,2,2,2,278429,2,2946812
2025-09-03 13:05:55.932,428436,2,2,2,2,270212,2,7141021
2025-09-03 13:05:55.932,428428,2,2,2,2,270189,2,7140998
2025-09-03 13:05:55.932,444810,2,2,2,2,270148,2,2946679
2025-09-03 13:05:55.933,428429,2,2,2,2,270179,2,7140909
2025-09-03 13:05:55.933,428435,2,2,2,2,270179,2,2946662
2025-09-03 13:05:55.933,428439,2,2,2,2,270111,2,2946589
2025-09-03 13:05:55.933,428501,2,2,2,2,270106,2,7140882
2025-09-03 13:05:55.934,428438,2,2,2,2,270095,2,7140868
2025-09-03 13:05:55.934,428441,2,2,2,2,270083,2,7140856
2025-09-03 13:05:55.934,428437,2,2,2,2,270325,2,7140842
2025-09-03 13:05:55.934,428441,2,2,2,2,278511,2,2946530
2025-09-03 13:05:55.935,428514,2,2,2,2,270320,2,7140831
2025-09-03 13:05:55.935,428445,2,2,2,2,270305,2,7140749
2025-09-03 13:05:55.935,428445,2,2,2,2,270225,2,7140732
2025-09-03 13:05:55.935,444863,2,2,2,2,270279,2,7140715
2025-09-03 13:05:55.936,428437,2,2,2,2,278388,2,2946326
2025-09-03 13:05:55.936,428488,2,2,2,2,270110,2,7140857
2025-09-03 13:05:55.936,428346,2,2,2,2,270079,2,7140820
2025-09-03 13:05:55.936,428386,2,2,2,2,269975,2,7140713
2025-09-03 13:05:55.937,444676,2,2,2,2,269878,2,7140606
2025-09-03 13:05:55.937,428543,2,2,2,2,269925,2,2946278
2025-09-03 13:05:55.937,428529,2,2,2,2,270077,2,7140412
2025-09-03 13:05:55.938,428515,2,2,2,2,270053,2,7140382
2025-09-03 13:05:55.938,444887,2,2,2,2,270035,2,7140356
2025-09-03 13:05:55.938,444875,2,2,2,2,269885,2,7140548
2025-09-03 13:05:55.939,428318,2,2,2,2,269812,2,2946063
2025-09-03 13:05:55.939,428312,2,2,2,2,269793,2,5043184
2025-09-03 13:05:55.939,428280,2,2,2,2,269689,2,7140216
2025-09-03 13:05:55.939,444558,2,2,2,2,269572,2,7140342
2025-09-03 13:05:55.940,444522,2,2,2,2,269707,2,2945901
2025-09-03 13:05:55.940,444441,2,2,2,2,269645,2,2945801
2025-09-03 13:05:55.940,428032,2,2,2,2,269576,2,7140058
2025-09-03 13:05:55.941,444666,2,2,2,2,269562,2,7139967
2025-09-03 13:05:55.941,444524,2,2,2,2,269574,2,2945636
2025-09-03 13:05:55.942,444556,2,2,2,2,269633,2,2945647
2025-09-03 13:05:55.942,428186,2,2,2,2,277860,2,2945634
2025-09-03 13:05:55.942,428182,2,2,2,2,277779,2,2945542
2025-09-03 13:05:55.942,428246,2,2,2,2,269573,2,7140077
2025-09-03 13:05:55.943,428176,2,2,2,2,269552,2,7139988
2025-09-03 13:05:55.943,428159,2,2,2,2,269454,2,7139883
2025-09-03 13:05:55.943,428147,2,2,2,2,269426,2,7139851
2025-09-03 13:05:55.943,428143,2,2,2,2,269411,2,7139829
2025-09-03 13:05:55.944,428153,2,2,2,2,269343,2,2945509
2025-09-03 13:05:55.944,444539,2,2,2,2,269363,2,2945422
2025-09-03 13:05:55.944,444526,2,2,2,2,269556,2,2945388
2025-09-03 13:05:55.944,444475,2,2,2,2,269524,2,7139586
2025-09-03 13:05:55.945,428287,2,2,2,2,269424,2,7139732
2025-09-03 13:05:55.945,428247,2,2,2,2,269314,2,7139614
2025-09-03 13:05:55.945,428090,2,2,2,2,269276,2,7139571
2025-09-03 13:05:55.945,428067,2,2,2,2,269179,2,7139531
2025-09-03 13:05:55.946,428052,2,2,2,2,269158,2,5042280
2025-09-03 13:05:55.946,428022,2,2,2,2,277249,2,2945277
2025-09-03 13:05:55.946,427933,2,2,2,2,269204,2,2945148
2025-09-03 13:05:55.947,427983,2,2,2,2,269175,2,7139353
2025-09-03 13:05:55.947,444299,2,2,2,2,269096,2,7139328
2025-09-03 13:05:55.947,444339,2,2,2,2,269089,2,7139315
2025-09-03 13:05:55.947,444367,2,2,2,2,269072,2,7139264
2025-09-03 13:05:55.948,427875,2,2,2,2,268949,2,7139093
2025-09-03 13:05:55.948,427797,2,2,2,2,268927,2,7139318
2025-09-03 13:05:55.948,427777,2,2,2,2,268902,2,5042070
2025-09-03 13:05:55.949,444404,2,2,2,2,268817,2,7139196
2025-09-03 13:05:55.949,444404,2,2,2,2,268805,2,2936682
2025-09-03 13:05:55.949,428008,2,2,2,2,269039,2,7139088
2025-09-03 13:05:55.949,444307,2,2,2,2,268977,2,2944753
2025-09-03 13:05:55.950,427913,2,2,2,2,268924,2,5041820
2025-09-03 13:05:55.950,427974,2,2,2,2,268851,2,7139027
2025-09-03 13:05:55.950,427988,2,2,2,2,268856,2,7139032
2025-09-03 13:05:55.950,428001,2,2,2,2,268921,2,7138965
2025-09-03 13:05:55.951,444392,2,2,2,2,268914,2,2936463
2025-09-03 13:05:55.951,428008,2,2,2,2,277093,2,5041787
2025-09-03 13:05:55.951,427932,2,2,2,2,276999,2,5041693
2025-09-03 13:05:55.951,427975,2,2,2,2,268778,2,7139066
2025-09-03 13:05:55.952,444239,2,2,2,2,268600,2,7138949
2025-09-03 13:05:55.952,444267,2,2,2,2,268580,2,7138930
2025-09-03 13:05:55.952,427875,2,2,2,2,268564,2,7138840
2025-09-03 13:05:55.953,444187,2,2,2,2,268797,2,7138812
2025-09-03 13:05:55.953,427791,2,2,2,2,268702,2,7138714
2025-09-03 13:05:55.953,427777,2,2,2,2,268676,2,7138684
2025-09-03 13:05:55.953,444157,2,2,2,2,268665,2,2944358
2025-09-03 13:05:55.954,427771,2,2,2,2,268649,2,7138576
2025-09-03 13:05:55.954,427757,2,2,2,2,268560,2,7138797
2025-09-03 13:05:55.954,427750,2,2,2,2,268542,2,7138770
2025-09-03 13:05:55.954,427748,2,2,2,2,268532,2,7138686
2025-09-03 13:05:55.955,444062,2,2,2,2,268482,2,2944363
2025-09-03 13:05:55.955,427675,2,2,2,2,268437,2,7138583
2025-09-03 13:05:55.955,427665,2,2,2,2,268415,2,7138551
2025-09-03 13:05:55.955,427652,2,2,2,2,268392,2,2944144
2025-09-03 13:05:55.956,427567,2,2,2,2,268303,2,7138348
2025-09-03 13:05:55.956,443969,2,2,2,2,268535,2,7138315
2025-09-03 13:05:55.956,443917,2,2,2,2,268506,2,7138530
2025-09-03 13:05:55.956,427759,2,2,2,2,268402,2,7138413
2025-09-03 13:05:55.957,427674,2,2,2,2,268301,2,2944004
2025-09-03 13:05:55.957,427722,2,2,2,2,268273,2,7138274
2025-09-03 13:05:55.957,427575,2,2,2,2,268179,2,7138104
2025-09-03 13:05:55.957,427549,2,2,2,2,268143,2,7138057
2025-09-03 13:05:55.958,427528,2,2,2,2,268047,2,7138206
2025-09-03 13:05:55.958,427503,2,2,2,2,268266,2,2943856
2025-09-03 13:05:55.958,427416,2,2,2,2,268168,2,2943747
2025-09-03 13:05:55.958,427467,2,2,2,2,268142,2,7138013
2025-09-03 13:05:55.959,427394,2,2,2,2,268058,2,7137915
2025-09-03 13:05:55.959,427386,2,2,2,2,268039,2,7137820
2025-09-03 13:05:55.959,427380,2,2,2,2,268018,2,7137795
2025-09-03 13:05:55.959,427366,2,2,2,2,267926,2,2943716
2025-09-03 13:05:55.960,443673,2,2,2,2,267897,2,2935421
2025-09-03 13:05:55.960,427274,2,2,2,2,267872,2,5040668
2025-09-03 13:05:55.960,427510,2,2,2,2,267777,2,5040625
2025-09-03 13:05:55.960,443875,2,2,2,2,268002,2,7137674
2025-09-03 13:05:55.961,427312,2,2,2,2,267802,2,7137776
2025-09-03 13:05:55.961,427293,2,2,2,2,267766,2,7137733
2025-09-03 13:05:55.961,427276,2,2,2,2,267673,2,7137568
2025-09-03 13:05:55.962,427266,2,2,2,2,275843,2,5040390
2025-09-03 13:05:55.962,427259,2,2,2,2,267634,2,7137516
2025-09-03 13:05:55.962,427238,2,2,2,2,267540,2,7137414
2025-09-03 13:05:55.962,443543,2,2,2,2,267772,2,2934885
2025-09-03 13:05:55.963,427156,2,2,2,2,267756,2,7137294
2025-09-03 13:05:55.963,427222,2,2,2,2,267745,2,7137531
2025-09-03 13:05:55.963,443605,2,2,2,2,267729,2,7137481
2025-09-03 13:05:55.964,427153,2,2,2,2,267638,2,7137407
2025-09-03 13:05:55.964,427139,2,2,2,2,267550,2,7137309
2025-09-03 13:05:55.964,427126,2,2,2,2,267530,2,7137274
2025-09-03 13:05:55.964,427107,2,2,2,2,275699,2,2942879
2025-09-03 13:05:55.965,427026,2,2,2,2,267484,2,7137219
2025-09-03 13:05:55.965,443646,2,2,2,2,267389,2,2942751
2025-09-03 13:05:55.965,443626,2,2,2,2,267328,2,2942971
2025-09-03 13:05:55.965,443581,2,2,2,2,267273,2,7137249
2025-09-03 13:05:55.966,427149,2,2,2,2,267503,2,7137156
2025-09-03 13:05:55.966,427126,2,2,2,2,267404,2,7137055
2025-09-03 13:05:55.966,427038,2,2,2,2,267371,2,7137020
2025-09-03 13:05:55.966,427018,2,2,2,2,267277,2,7136923
2025-09-03 13:05:55.967,443341,2,2,2,2,267241,2,7136884
2025-09-03 13:05:55.967,426897,2,2,2,2,267140,2,2942475
2025-09-03 13:05:55.967,426872,2,2,2,2,267022,2,2934421
2025-09-03 13:05:55.968,426806,2,2,2,2,267008,2,7136965
2025-09-03 13:05:55.968,443258,2,2,2,2,267262,2,7136888
2025-09-03 13:05:55.968,443213,2,2,2,2,267237,2,7136827
2025-09-03 13:05:55.969,426769,2,2,2,2,267117,2,2942365
2025-09-03 13:05:55.969,426755,2,2,2,2,267032,2,7136706
2025-09-03 13:05:55.969,426998,2,2,2,2,267005,2,7136551
2025-09-03 13:05:55.969,426983,2,2,2,2,275171,2,5039370
2025-09-03 13:05:55.970,426977,2,2,2,2,266894,2,7136759
2025-09-03 13:05:55.970,443286,2,2,2,2,266872,2,2934169
2025-09-03 13:05:55.970,443269,2,2,2,2,266816,2,2934134
2025-09-03 13:05:55.970,426950,2,2,2,2,266776,2,7136545
2025-09-03 13:05:55.971,426892,2,2,2,2,274963,2,5039380
2025-09-03 13:05:55.971,443277,2,2,2,2,267002,2,2933917
2025-09-03 13:05:55.972,426946,2,2,2,2,266981,2,7136318
2025-09-03 13:05:55.972,426869,2,2,2,2,275087,2,2942048
2025-09-03 13:05:55.972,426853,2,2,2,2,275058,2,2942206
2025-09-03 13:05:55.972,426777,2,2,2,2,266779,2,7136479
2025-09-03 13:05:55.973,426755,2,2,2,2,266746,2,7136368
2025-09-03 13:05:55.973,426737,2,2,2,2,266645,2,7136262
2025-09-03 13:05:55.973,426724,2,2,2,2,266617,2,7136228
2025-09-03 13:05:55.973,426725,2,2,2,2,274799,2,5038991
2025-09-03 13:05:55.974,426719,2,2,2,2,266524,2,7136114
2025-09-03 13:05:55.974,426630,2,2,2,2,266745,2,7136001
2025-09-03 13:05:55.974,426614,2,2,2,2,266650,2,7136152
2025-09-03 13:05:55.974,442998,2,2,2,2,266706,2,7136130
2025-09-03 13:05:55.975,426622,2,2,2,2,274830,2,5038963
2025-09-03 13:05:55.975,426546,2,2,2,2,266555,2,7136019
2025-09-03 13:05:55.975,426506,2,2,2,2,266497,2,7135952
2025-09-03 13:05:55.975,426723,2,2,2,2,266381,2,7135764
2025-09-03 13:05:55.976,443027,2,2,2,2,266356,2,2941683
2025-09-03 13:05:55.976,426628,2,2,2,2,274460,2,2941585
2025-09-03 13:05:55.976,426610,2,2,2,2,266492,2,7135847
2025-09-03 13:05:55.976,426601,2,2,2,2,266468,2,2941447
2025-09-03 13:05:55.977,426596,2,2,2,2,266381,2,7135725
2025-09-03 13:05:55.977,442890,2,2,2,2,266275,2,7135616
2025-09-03 13:05:55.977,442878,2,2,2,2,266247,2,7135514
2025-09-03 13:05:55.977,426482,2,2,2,2,266226,2,7135734
2025-09-03 13:05:55.978,426468,2,2,2,2,266142,2,2941335
2025-09-03 13:05:55.978,426395,2,2,2,2,266125,2,7135612
2025-09-03 13:05:55.978,426467,2,2,2,2,266122,2,7135536
2025-09-03 13:05:55.978,426475,2,2,2,2,266117,2,5038438
2025-09-03 13:05:55.979,426481,2,2,2,2,266112,2,7135519
2025-09-03 13:05:55.979,426481,2,2,2,2,266105,2,2933004
2025-09-03 13:05:55.979,426477,2,2,2,2,266088,2,2932979
2025-09-03 13:05:55.979,426465,2,2,2,2,266001,2,7135447
2025-09-03 13:05:55.980,426384,2,2,2,2,266230,2,5038199
2025-09-03 13:05:55.980,426437,2,2,2,2,266206,2,7135251
2025-09-03 13:05:55.980,426290,2,2,2,2,266178,2,7135438
2025-09-03 13:05:55.980,426266,2,2,2,2,266085,2,7135362
2025-09-03 13:05:55.981,426256,2,2,2,2,266005,2,7135274
2025-09-03 13:05:55.981,426266,2,2,2,2,266004,2,5038177
2025-09-03 13:05:55.981,426264,2,2,2,2,265987,2,5038087
2025-09-03 13:05:55.981,426257,2,2,2,2,265969,2,7135183
2025-09-03 13:05:55.982,426256,2,2,2,2,265878,2,7118800
2025-09-03 13:05:55.982,442640,2,2,2,2,265932,2,2940803
2025-09-03 13:05:55.982,426242,2,2,2,2,265846,2,7118698
2025-09-03 13:05:55.983,426482,2,2,2,2,265757,2,2924302
2025-09-03 13:05:55.983,426477,2,2,2,2,265742,2,7118844
2025-09-03 13:05:55.983,426479,2,2,2,2,265738,2,7118836
2025-09-03 13:05:55.983,442862,2,2,2,2,265982,2,2940902
2025-09-03 13:05:55.984,442831,2,2,2,2,265974,2,7135131
2025-09-03 13:05:55.984,426471,2,2,2,2,265954,2,2924424
2025-09-03 13:05:55.984,426392,2,2,2,2,265863,2,2924399
2025-09-03 13:05:55.984,442755,2,2,2,2,265798,2,2932497
2025-09-03 13:05:55.985,426299,2,2,2,2,265750,2,7118582
2025-09-03 13:05:55.985,426362,2,2,2,2,265736,2,7118563
2025-09-03 13:05:55.985,426357,2,2,2,2,265714,2,7118474
2025-09-03 13:05:55.986,426341,2,2,2,2,265617,2,2932255
2025-09-03 13:05:55.986,426270,2,2,2,2,265592,2,5021189
2025-09-03 13:05:55.986,426265,2,2,2,2,265577,2,5021425
2025-09-03 13:05:55.986,442625,2,2,2,2,265477,2,7134858
2025-09-03 13:05:55.987,426229,2,2,2,2,265710,2,7134763
2025-09-03 13:05:55.987,426225,2,2,2,2,265699,2,7118359
2025-09-03 13:05:55.987,426230,2,2,2,2,265630,2,7118349
2025-09-03 13:05:55.987,426232,2,2,2,2,265616,2,7118328
2025-09-03 13:05:55.988,426216,2,2,2,2,265586,2,5021072
2025-09-03 13:05:55.988,426095,2,2,2,2,265371,2,7118238
2025-09-03 13:05:55.989,442478,2,2,2,2,265422,2,2940297
2025-09-03 13:05:55.989,442423,2,2,2,2,265415,2,7134587
2025-09-03 13:05:55.989,426107,2,2,2,2,265341,2,2923884
2025-09-03 13:05:55.989,426179,2,2,2,2,265277,2,7134498
2025-09-03 13:05:55.990,426121,2,2,2,2,265337,2,7118096
2025-09-03 13:05:55.990,426115,2,2,2,2,265319,2,7118068
2025-09-03 13:05:55.990,426112,2,2,2,2,265237,2,7118046
2025-09-03 13:05:55.990,426117,2,2,2,2,265232,2,7117965
2025-09-03 13:05:55.991,426127,2,2,2,2,265232,2,2923650
2025-09-03 13:05:55.991,426123,2,2,2,2,265471,2,7117927
2025-09-03 13:05:55.991,426128,2,2,2,2,265463,2,7117843
2025-09-03 13:05:55.991,442548,2,2,2,2,265453,2,7134210
2025-09-03 13:05:55.992,426136,2,2,2,2,265443,2,7118066
2025-09-03 13:05:55.992,426190,2,2,2,2,265357,2,7118032
2025-09-03 13:05:55.992,442496,2,2,2,2,265336,2,2931821
2025-09-03 13:05:55.992,426038,2,2,2,2,265314,2,7117834
2025-09-03 13:05:55.993,426087,2,2,2,2,265225,2,5020651
2025-09-03 13:05:55.993,425994,2,2,2,2,265092,2,2931471
2025-09-03 13:05:55.994,425992,2,2,2,2,265082,2,7117814
2025-09-03 13:05:55.994,442621,2,2,2,2,264999,2,7134136
2025-09-03 13:05:55.994,426238,2,2,2,2,264986,2,5020548
2025-09-03 13:05:55.994,426238,2,2,2,2,264973,2,7134031
2025-09-03 13:05:55.995,426233,2,2,2,2,265211,2,2923286
2025-09-03 13:05:55.995,426225,2,2,2,2,265192,2,7117561
2025-09-03 13:05:55.995,426222,2,2,2,2,265117,2,7117541
2025-09-03 13:05:55.995,426208,2,2,2,2,265094,2,5020291
2025-09-03 13:05:55.996,442586,2,2,2,2,265011,2,7133765
2025-09-03 13:05:55.996,442522,2,2,2,2,265030,2,2931218
2025-09-03 13:05:55.996,442519,2,2,2,2,265019,2,2931455
2025-09-03 13:05:55.996,426179,2,2,2,2,264955,2,7117531
2025-09-03 13:05:55.997,426098,2,2,2,2,264859,2,5020280
2025-09-03 13:05:55.997,426013,2,2,2,2,264759,2,7133714
2025-09-03 13:05:55.997,425984,2,2,2,2,264717,2,7133668
2025-09-03 13:05:55.997,425958,2,2,2,2,264936,2,7117180
2025-09-03 13:05:55.998,409479,2,2,2,2,264829,2,2939147
2025-09-03 13:05:55.998,425840,2,2,2,2,264801,2,5020131
2025-09-03 13:05:55.998,425759,2,2,2,2,264707,2,5020032
2025-09-03 13:05:55.998,425763,2,2,2,2,264697,2,7133556
2025-09-03 13:05:55.999,409400,2,2,2,2,264671,2,7133456
2025-09-03 13:05:55.999,409350,2,2,2,2,264646,2,7133428
2025-09-03 13:05:55.999,425981,2,2,2,2,264564,2,7117025
2025-09-03 13:05:56.000,425969,2,2,2,2,264545,2,2922637
2025-09-03 13:05:56.000,425879,2,2,2,2,264700,2,7116899
2025-09-03 13:05:56.000,425857,2,2,2,2,264676,2,7116803
2025-09-03 13:05:56.000,409468,2,2,2,2,264668,2,2939122
2025-09-03 13:05:56.001,425855,2,2,2,2,264599,2,7117035
2025-09-03 13:05:56.001,425763,2,2,2,2,264495,2,7133378
2025-09-03 13:05:56.001,425731,2,2,2,2,264453,2,2922513
2025-09-03 13:05:56.001,425719,2,2,2,2,264427,2,7116788
2025-09-03 13:05:56.002,409338,2,2,2,2,264383,2,2938853
2025-09-03 13:05:56.002,425704,2,2,2,2,264323,2,7116673
2025-09-03 13:05:56.002,425627,2,2,2,2,264296,2,7116644
2025-09-03 13:05:56.002,425696,2,2,2,2,264288,2,2922263
2025-09-03 13:05:56.003,425683,2,2,2,2,264199,2,7116798
2025-09-03 13:05:56.003,409213,2,2,2,2,264421,2,7133083
2025-09-03 13:05:56.003,409153,2,2,2,2,264252,2,7133037
2025-09-03 13:05:56.003,425486,2,2,2,2,264288,2,7116551
2025-09-03 13:05:56.004,425711,2,2,2,2,264173,2,7116489
2025-09-03 13:05:56.004,425710,2,2,2,2,264160,2,7116339
2025-09-03 13:05:56.004,425708,2,2,2,2,264084,2,7116317
2025-09-03 13:05:56.005,425710,2,2,2,2,264078,2,5019146
2025-09-03 13:05:56.005,425700,2,2,2,2,264059,2,2930412
2025-09-03 13:05:56.005,425624,2,2,2,2,264033,2,2922123
2025-09-03 13:05:56.005,409231,2,2,2,2,263950,2,2930286
2025-09-03 13:05:56.006,425611,2,2,2,2,264191,2,7116309
2025-09-03 13:05:56.006,425599,2,2,2,2,264172,2,7116278
2025-09-03 13:05:56.006,425665,2,2,2,2,264157,2,7132603
2025-09-03 13:05:56.007,409211,2,2,2,2,264059,2,2930021
2025-09-03 13:05:56.007,425607,2,2,2,2,264057,2,5018907
2025-09-03 13:05:56.007,425615,2,2,2,2,264055,2,5018894
2025-09-03 13:05:56.007,425610,2,2,2,2,264038,2,2921970
2025-09-03 13:05:56.008,425517,2,2,2,2,263932,2,7132608
2025-09-03 13:05:56.008,425480,2,2,2,2,263820,2,7116041
2025-09-03 13:05:56.008,409064,2,2,2,2,263745,2,2938004
2025-09-03 13:05:56.008,425372,2,2,2,2,263687,2,7115823
2025-09-03 13:05:56.009,425360,2,2,2,2,263916,2,2921482
2025-09-03 13:05:56.009,425342,2,2,2,2,263821,2,7116001
2025-09-03 13:05:56.009,425319,2,2,2,2,263791,2,7115898
2025-09-03 13:05:56.009,425313,2,2,2,2,263708,2,7115875
2025-09-03 13:05:56.010,408887,2,2,2,2,263686,2,7132162
2025-09-03 13:05:56.010,425234,2,2,2,2,263667,2,7132103
2025-09-03 13:05:56.010,425238,2,2,2,2,263661,2,2921366
2025-09-03 13:05:56.010,425232,2,2,2,2,263647,2,7115576
2025-09-03 13:05:56.011,425236,2,2,2,2,263571,2,7115619
2025-09-03 13:05:56.011,425236,2,2,2,2,263561,2,7115532
2025-09-03 13:05:56.011,408840,2,2,2,2,263472,2,7132111
2025-09-03 13:05:56.012,425442,2,2,2,2,263670,2,7115562
2025-09-03 13:05:56.012,425359,2,2,2,2,263575,2,7115527
2025-09-03 13:05:56.012,425353,2,2,2,2,263560,2,7115508
2025-09-03 13:05:56.012,408965,2,2,2,2,263481,2,7131872
2025-09-03 13:05:56.013,425348,2,2,2,2,263532,2,7115403
2025-09-03 13:05:56.013,425272,2,2,2,2,263439,2,7115307
2025-09-03 13:05:56.013,425251,2,2,2,2,263410,2,7115270
2025-09-03 13:05:56.013,425226,2,2,2,2,263309,2,7115416
2025-09-03 13:05:56.014,408819,2,2,2,2,263209,2,7131758
2025-09-03 13:05:56.014,408601,2,2,2,2,263243,2,2928998
2025-09-03 13:05:56.015,424980,2,2,2,2,263193,2,7115020
2025-09-03 13:05:56.015,408603,2,2,2,2,263194,2,7131394
2025-09-03 13:05:56.015,408606,2,2,2,2,263191,2,7131639
2025-09-03 13:05:56.016,424975,2,2,2,2,263161,2,2929041
2025-09-03 13:05:56.016,424976,2,2,2,2,263147,2,7115205
2025-09-03 13:05:56.016,424965,2,2,2,2,263062,2,7115051
2025-09-03 13:05:56.016,424965,2,2,2,2,263052,2,5017882
2025-09-03 13:05:56.017,408580,2,2,2,2,263027,2,2928894
2025-09-03 13:05:56.017,408820,2,2,2,2,262969,2,2928868
2025-09-03 13:05:56.017,425184,2,2,2,2,263163,2,7114945
2025-09-03 13:05:56.018,425117,2,2,2,2,263150,2,5017715
2025-09-03 13:05:56.018,425158,2,2,2,2,263105,2,7114754
2025-09-03 13:05:56.018,425076,2,2,2,2,263014,2,7114980
2025-09-03 13:05:56.019,424995,2,2,2,2,262925,2,7114950
2025-09-03 13:05:56.019,424976,2,2,2,2,262898,2,2920548
2025-09-03 13:05:56.019,424963,2,2,2,2,262809,2,2920454
2025-09-03 13:05:56.019,424957,2,2,2,2,262850,2,7131119
2025-09-03 13:05:56.020,424944,2,2,2,2,262758,2,7114639
2025-09-03 13:05:56.020,424935,2,2,2,2,262668,2,7114546
2025-09-03 13:05:56.020,424929,2,2,2,2,262905,2,7114520
2025-09-03 13:05:56.020,424851,2,2,2,2,262881,2,5017590
2025-09-03 13:05:56.021,424896,2,2,2,2,262852,2,7131089
2025-09-03 13:05:56.021,424813,2,2,2,2,262758,2,7114606
2025-09-03 13:05:56.021,424730,2,2,2,2,262665,2,7114501
2025-09-03 13:05:56.021,408329,2,2,2,2,262637,2,7130848
2025-09-03 13:05:56.022,424713,2,2,2,2,262557,2,7114383
2025-09-03 13:05:56.022,424727,2,2,2,2,262622,2,7114439
2025-09-03 13:05:56.022,424747,2,2,2,2,262629,2,7114437
2025-09-03 13:05:56.022,424818,2,2,2,2,262624,2,7114354
2025-09-03 13:05:56.023,408442,2,2,2,2,262617,2,7130654
2025-09-03 13:05:56.023,424734,2,2,2,2,262428,2,2920065
2025-09-03 13:05:56.024,424720,2,2,2,2,262405,2,7114275
2025-09-03 13:05:56.024,408567,2,2,2,2,262623,2,7130614
2025-09-03 13:05:56.024,408512,2,2,2,2,262457,2,7130505
2025-09-03 13:05:56.024,408519,2,2,2,2,262422,2,7130430
2025-09-03 13:05:56.025,424729,2,2,2,2,262294,2,7114110
2025-09-03 13:05:56.025,424715,2,2,2,2,262264,2,7114008
2025-09-03 13:05:56.025,424705,2,2,2,2,262243,2,5016827
2025-09-03 13:05:56.026,408324,2,2,2,2,262165,2,7130311
2025-09-03 13:05:56.026,408329,2,2,2,2,262194,2,2919573
2025-09-03 13:05:56.026,408341,2,2,2,2,262172,2,2919569
2025-09-03 13:05:56.026,408345,2,2,2,2,262199,2,2935936
2025-09-03 13:05:56.027,424712,2,2,2,2,262394,2,7113755
2025-09-03 13:05:56.027,424675,2,2,2,2,262247,2,7113841
2025-09-03 13:05:56.028,408213,2,2,2,2,262154,2,2919439
2025-09-03 13:05:56.028,424586,2,2,2,2,327670,2,5016561
2025-09-03 13:05:56.028,424592,2,2,2,2,327666,2,5016551
2025-09-03 13:05:56.028,424594,2,2,2,2,327662,2,2919318
2025-09-03 13:05:56.029,424651,2,2,2,2,327643,2,7113530
2025-09-03 13:05:56.029,424566,2,2,2,2,327544,2,7113486
2025-09-03 13:05:56.029,408129,2,2,2,2,327444,2,7130088
2025-09-03 13:05:56.029,424461,2,2,2,2,327677,2,7113607
2025-09-03 13:05:56.030,424452,2,2,2,2,327658,2,2919278
2025-09-03 13:05:56.030,424460,2,2,2,2,327650,2,7113503
2025-09-03 13:05:56.030,424487,2,2,2,2,327669,2,7113512
2025-09-03 13:05:56.030,424563,2,2,2,2,327670,2,7113570
2025-09-03 13:05:56.031,424554,2,2,2,2,327581,2,7113483
2025-09-03 13:05:56.031,424474,2,2,2,2,327551,2,2919146
2025-09-03 13:05:56.031,424460,2,2,2,2,327525,2,2919052
2025-09-03 13:05:56.031,424692,2,2,2,2,327426,2,7113248
2025-09-03 13:05:56.032,424690,2,2,2,2,327420,2,7113231
2025-09-03 13:05:56.032,424695,2,2,2,2,327413,2,7113217
2025-09-03 13:05:56.032,424682,2,2,2,2,327324,2,7113448
2025-09-03 13:05:56.032,424597,2,2,2,2,327291,2,2919050
2025-09-03 13:05:56.033,424642,2,2,2,2,327200,2,7113261
2025-09-03 13:05:56.033,424565,2,2,2,2,327173,2,5016079
2025-09-03 13:05:56.033,424564,2,2,2,2,327418,2,5016067
2025-09-03 13:05:56.033,408256,2,2,2,2,327420,2,7129603
2025-09-03 13:05:56.034,424662,2,2,2,2,327172,2,7113219
2025-09-03 13:05:56.034,424651,2,2,2,2,327405,2,7113198
2025-09-03 13:05:56.034,424573,2,2,2,2,327319,2,7113105
2025-09-03 13:05:56.035,408134,2,2,2,2,327225,2,7129413
2025-09-03 13:05:56.035,424466,2,2,2,2,327195,2,7113208
2025-09-03 13:05:56.035,408076,2,2,2,2,327161,2,2918797
2025-09-03 13:05:56.036,424466,2,2,2,2,327152,2,7113087
2025-09-03 13:05:56.036,424475,2,2,2,2,327151,2,7129464
2025-09-03 13:05:56.036,408096,2,2,2,2,327145,2,7129421
2025-09-03 13:05:56.037,408173,2,2,2,2,327108,2,2918683
2025-09-03 13:05:56.037,424555,2,2,2,2,327064,2,5015816
2025-09-03 13:05:56.037,424555,2,2,2,2,327057,2,5015802
2025-09-03 13:05:56.037,408103,2,2,2,2,326975,2,7129287
2025-09-03 13:05:56.038,408086,2,2,2,2,326972,2,2934900
2025-09-03 13:05:56.038,408072,2,2,2,2,326914,2,2934807
2025-09-03 13:05:56.038,424449,2,2,2,2,327152,2,7112958
2025-09-03 13:05:56.039,424446,2,2,2,2,327138,2,5015785
2025-09-03 13:05:56.039,424427,2,2,2,2,327044,2,7112833
2025-09-03 13:05:56.039,424346,2,2,2,2,327018,2,7112733
2025-09-03 13:05:56.039,407966,2,2,2,2,326977,2,2918406
2025-09-03 13:05:56.040,424332,2,2,2,2,326915,2,7112675
2025-09-03 13:05:56.040,424338,2,2,2,2,326910,2,2918293
2025-09-03 13:05:56.040,424416,2,2,2,2,326911,2,2918280
2025-09-03 13:05:56.040,424414,2,2,2,2,326894,2,7112498
2025-09-03 13:05:56.041,424349,2,2,2,2,326881,2,7112469
2025-09-03 13:05:56.041,424342,2,2,2,2,326797,2,7112693
2025-09-03 13:05:56.041,424322,2,2,2,2,326766,2,7112589
2025-09-03 13:05:56.041,424298,2,2,2,2,326668,2,2918241
2025-09-03 13:05:56.042,424219,2,2,2,2,326897,2,7128832
2025-09-03 13:05:56.042,424443,2,2,2,2,326787,2,7112328
2025-09-03 13:05:56.042,424347,2,2,2,2,326676,2,7112208
2025-09-03 13:05:56.042,407924,2,2,2,2,326626,2,7128726
2025-09-03 13:05:56.043,424207,2,2,2,2,326516,2,7112220
2025-09-03 13:05:56.043,424183,2,2,2,2,326414,2,7112172
2025-09-03 13:05:56.043,424164,2,2,2,2,326638,2,7112133
2025-09-03 13:05:56.043,424076,2,2,2,2,326542,2,7111962
2025-09-03 13:05:56.044,424058,2,2,2,2,326513,2,5015029
2025-09-03 13:05:56.044,424061,2,2,2,2,326507,2,2917859
2025-09-03 13:05:56.044,424058,2,2,2,2,326496,2,2917775
2025-09-03 13:05:56.044,407667,2,2,2,2,326411,2,2917747
2025-09-03 13:05:56.045,423983,2,2,2,2,326396,2,7111964
2025-09-03 13:05:56.045,407607,2,2,2,2,326389,2,7128372
2025-09-03 13:05:56.045,407670,2,2,2,2,326379,2,7128320
2025-09-03 13:05:56.046,424037,2,2,2,2,326269,2,7111811
2025-09-03 13:05:56.046,423965,2,2,2,2,326252,2,5014631
2025-09-03 13:05:56.046,423958,2,2,2,2,326172,2,7111697
2025-09-03 13:05:56.046,423950,2,2,2,2,326152,2,5014772
2025-09-03 13:05:56.047,423946,2,2,2,2,326389,2,7128247
2025-09-03 13:05:56.047,423946,2,2,2,2,326377,2,7111875
2025-09-03 13:05:56.047,407578,2,2,2,2,326347,2,2917504
2025-09-03 13:05:56.047,423970,2,2,2,2,326371,2,7111735
2025-09-03 13:05:56.048,423954,2,2,2,2,326282,2,5014549
2025-09-03 13:05:56.048,423941,2,2,2,2,326178,2,7111656
2025-09-03 13:05:56.048,423949,2,2,2,2,326245,2,7111580
2025-09-03 13:05:56.049,407557,2,2,2,2,326195,2,2933635
2025-09-03 13:05:56.049,424178,2,2,2,2,326134,2,2917217
2025-09-03 13:05:56.049,424093,2,2,2,2,326045,2,2917123
2025-09-03 13:05:56.049,423997,2,2,2,2,325944,2,7128029
2025-09-03 13:05:56.050,423963,2,2,2,2,325900,2,7111537
2025-09-03 13:05:56.050,423942,2,2,2,2,326121,2,7111434
2025-09-03 13:05:56.050,407502,2,2,2,2,326091,2,7127786
2025-09-03 13:05:56.050,423834,2,2,2,2,326002,2,7111311
2025-09-03 13:05:56.051,423887,2,2,2,2,325916,2,7127671
2025-09-03 13:05:56.051,423806,2,2,2,2,325893,2,7111194
2025-09-03 13:05:56.051,423794,2,2,2,2,325871,2,7111170
2025-09-03 13:05:56.051,407359,2,2,2,2,325842,2,7127777
2025-09-03 13:05:56.052,423702,2,2,2,2,325756,2,7111306
2025-09-03 13:05:56.052,423693,2,2,2,2,325673,2,7111214
2025-09-03 13:05:56.052,423931,2,2,2,2,325646,2,7111181
2025-09-03 13:05:56.052,423915,2,2,2,2,325872,2,7111147
2025-09-03 13:05:56.053,407520,2,2,2,2,325844,2,2933133
2025-09-03 13:05:56.053,423916,2,2,2,2,325756,2,2916633
2025-09-03 13:05:56.054,423908,2,2,2,2,325738,2,7110914
2025-09-03 13:05:56.054,407482,2,2,2,2,325653,2,7127524
2025-09-03 13:05:56.054,407430,2,2,2,2,325626,2,7127426
2025-09-03 13:05:56.054,423798,2,2,2,2,325533,2,7110943
2025-09-03 13:05:56.055,423806,2,2,2,2,325528,2,2916626
2025-09-03 13:05:56.055,423813,2,2,2,2,325521,2,7110914
2025-09-03 13:05:56.055,423877,2,2,2,2,325508,2,7110893
2025-09-03 13:05:56.055,407427,2,2,2,2,325434,2,7127192
2025-09-03 13:05:56.056,423802,2,2,2,2,325482,2,7110780
2025-09-03 13:05:56.056,407402,2,2,2,2,325391,2,2916372
2025-09-03 13:05:56.056,423785,2,2,2,2,325376,2,2916607
2025-09-03 13:05:56.056,423709,2,2,2,2,325608,2,7110873
2025-09-03 13:05:56.057,423697,2,2,2,2,325513,2,5013619
2025-09-03 13:05:56.057,423677,2,2,2,2,325397,2,2916255
2025-09-03 13:05:56.058,423641,2,2,2,2,325350,2,7110437
2025-09-03 13:05:56.058,423535,2,2,2,2,325234,2,5013477
2025-09-03 13:05:56.058,423439,2,2,2,2,325131,2,5013365
2025-09-03 13:05:56.058,423677,2,2,2,2,325361,2,7094064
2025-09-03 13:05:56.059,423581,2,2,2,2,325254,2,7110350
2025-09-03 13:05:56.059,423636,2,2,2,2,325231,2,7110192
2025-09-03 13:05:56.059,423567,2,2,2,2,325143,2,5013015
2025-09-03 13:05:56.060,407240,2,2,2,2,325125,2,7094006
2025-09-03 13:05:56.060,407146,2,2,2,2,325047,2,2915966
2025-09-03 13:05:56.060,423446,2,2,2,2,324983,2,7110165
2025-09-03 13:05:56.060,407055,2,2,2,2,324934,2,2899450
2025-09-03 13:05:56.061,423431,2,2,2,2,324880,2,7110110
2025-09-03 13:05:56.061,423419,2,2,2,2,325112,2,7093563
2025-09-03 13:05:56.061,423412,2,2,2,2,325090,2,7093532
2025-09-03 13:05:56.061,423401,2,2,2,2,325007,2,7109889
2025-09-03 13:05:56.062,423393,2,2,2,2,324986,2,7110121
2025-09-03 13:05:56.062,423314,2,2,2,2,324893,2,5012872
2025-09-03 13:05:56.062,423299,2,2,2,2,324867,2,5012839
2025-09-03 13:05:56.062,423288,2,2,2,2,324843,2,2915593
2025-09-03 13:05:56.063,423228,2,2,2,2,324831,2,7109883
2025-09-03 13:05:56.063,406912,2,2,2,2,324822,2,7093482
2025-09-03 13:05:56.063,406910,2,2,2,2,324804,2,7093393
2025-09-03 13:05:56.063,423284,2,2,2,2,324724,2,7109750
2025-09-03 13:05:56.064,423289,2,2,2,2,324719,2,2915433
2025-09-03 13:05:56.064,423285,2,2,2,2,324708,2,7109649
2025-09-03 13:05:56.064,423285,2,2,2,2,324628,2,7109634
2025-09-03 13:05:56.064,423267,2,2,2,2,324856,2,7109858
2025-09-03 13:05:56.065,406797,2,2,2,2,324826,2,7093377
2025-09-03 13:05:56.065,423170,2,2,2,2,324804,2,7093286
2025-09-03 13:05:56.065,423411,2,2,2,2,324714,2,2915336
2025-09-03 13:05:56.065,407014,2,2,2,2,324657,2,2915304
2025-09-03 13:05:56.066,423395,2,2,2,2,324615,2,7109528
2025-09-03 13:05:56.066,423316,2,2,2,2,324593,2,7109503
2025-09-03 13:05:56.066,423291,2,2,2,2,324502,2,7109475
2025-09-03 13:05:56.067,406814,2,2,2,2,324417,2,2915304
2025-09-03 13:05:56.067,406838,2,2,2,2,324367,2,7093138
2025-09-03 13:05:56.067,423183,2,2,2,2,324355,2,5012357
2025-09-03 13:05:56.067,406791,2,2,2,2,324595,2,7093105
2025-09-03 13:05:56.068,423163,2,2,2,2,324489,2,7109382
2025-09-03 13:05:56.068,406768,2,2,2,2,324464,2,2898662
2025-09-03 13:05:56.068,423053,2,2,2,2,324360,2,7109175
2025-09-03 13:05:56.069,423021,2,2,2,2,324320,2,5011975
2025-09-03 13:05:56.069,422931,2,2,2,2,324215,2,7109273
2025-09-03 13:05:56.069,423163,2,2,2,2,324116,2,7109230
2025-09-03 13:05:56.069,406765,2,2,2,2,324344,2,2914827
2025-09-03 13:05:56.070,423143,2,2,2,2,324322,2,7109100
2025-09-03 13:05:56.070,423071,2,2,2,2,324235,2,2914702
2025-09-03 13:05:56.070,423057,2,2,2,2,324207,2,2914669
2025-09-03 13:05:56.070,422974,2,2,2,2,324114,2,7108875
2025-09-03 13:05:56.071,406638,2,2,2,2,324085,2,2914792
2025-09-03 13:05:56.071,422932,2,2,2,2,323980,2,7108986
2025-09-03 13:05:56.071,422913,2,2,2,2,323942,2,7108884
2025-09-03 13:05:56.071,422885,2,2,2,2,324094,2,2914538
2025-09-03 13:05:56.072,422860,2,2,2,2,324065,2,7092422
2025-09-03 13:05:56.072,406406,2,2,2,2,324017,2,2898027
2025-09-03 13:05:56.072,406393,2,2,2,2,323961,2,2897933
2025-09-03 13:05:56.072,422776,2,2,2,2,323944,2,7108850
2025-09-03 13:05:56.073,422757,2,2,2,2,323856,2,5011594
2025-09-03 13:05:56.073,422696,2,2,2,2,323855,2,7108666
2025-09-03 13:05:56.073,422695,2,2,2,2,323843,2,7108645
2025-09-03 13:05:56.073,422683,2,2,2,2,323826,2,7108614
2025-09-03 13:05:56.074,422685,2,2,2,2,323813,2,7108598
2025-09-03 13:05:56.074,422676,2,2,2,2,323726,2,2914203
2025-09-03 13:05:56.074,422911,2,2,2,2,323689,2,2914156
2025-09-03 13:05:56.074,422894,2,2,2,2,323597,2,7108359
2025-09-03 13:05:56.075,422891,2,2,2,2,323839,2,7108590
2025-09-03 13:05:56.075,422892,2,2,2,2,323823,2,7108498
2025-09-03 13:05:56.075,406515,2,2,2,2,323818,2,7092098
2025-09-03 13:05:56.076,422907,2,2,2,2,323796,2,7091993
2025-09-03 13:05:56.076,422899,2,2,2,2,323710,2,7108346
2025-09-03 13:05:56.076,422901,2,2,2,2,323696,2,7108323
2025-09-03 13:05:56.076,406472,2,2,2,2,323607,2,7091836
2025-09-03 13:05:56.077,422807,2,2,2,2,323575,2,7108116
2025-09-03 13:05:56.077,422869,2,2,2,2,323563,2,7108096
2025-09-03 13:05:56.077,422866,2,2,2,2,323484,2,7108327
2025-09-03 13:05:56.077,422796,2,2,2,2,323474,2,7108246
2025-09-03 13:05:56.078,406404,2,2,2,2,323521,2,7091838
2025-09-03 13:05:56.078,406267,2,2,2,2,323481,2,2913649
2025-09-03 13:05:56.079,422629,2,2,2,2,323451,2,7107851
2025-09-03 13:05:56.079,406223,2,2,2,2,323351,2,7091650
2025-09-03 13:05:56.079,406076,2,2,2,2,323321,2,7091585
2025-09-03 13:05:56.080,422510,2,2,2,2,323217,2,7107846
2025-09-03 13:05:56.080,422498,2,2,2,2,323193,2,7107814
2025-09-03 13:05:56.080,422427,2,2,2,2,323174,2,7107790
2025-09-03 13:05:56.080,422498,2,2,2,2,314978,2,5010563
2025-09-03 13:05:56.081,422439,2,2,2,2,323102,2,7091321
2025-09-03 13:05:56.081,406126,2,2,2,2,323133,2,2913389
2025-09-03 13:05:56.081,406125,2,2,2,2,323122,2,2913306
2025-09-03 13:05:56.081,422505,2,2,2,2,323076,2,7107591
2025-09-03 13:05:56.082,422516,2,2,2,2,323077,2,7107587
2025-09-03 13:05:56.082,422511,2,2,2,2,323297,2,7107740
2025-09-03 13:05:56.083,406114,2,2,2,2,323213,2,2897029
2025-09-03 13:05:56.083,422422,2,2,2,2,315001,2,2913387
2025-09-03 13:05:56.083,422427,2,2,2,2,314995,2,2913310
2025-09-03 13:05:56.083,422430,2,2,2,2,323183,2,2913303
2025-09-03 13:05:56.084,422427,2,2,2,2,323175,2,7107595
2025-09-03 13:05:56.084,422426,2,2,2,2,323102,2,7107581
2025-09-03 13:05:56.084,406071,2,2,2,2,323086,2,7091181
2025-09-03 13:05:56.084,422415,2,2,2,2,323066,2,7107477
2025-09-03 13:05:56.085,422402,2,2,2,2,323044,2,2913151
2025-09-03 13:05:56.085,422654,2,2,2,2,322965,2,7107436
2025-09-03 13:05:56.085,422651,2,2,2,2,322944,2,7107351
2025-09-03 13:05:56.085,422641,2,2,2,2,322922,2,5010429
2025-09-03 13:05:56.086,406249,2,2,2,2,322844,2,7091144
2025-09-03 13:05:56.086,422628,2,2,2,2,322829,2,2913173
2025-09-03 13:05:56.086,422626,2,2,2,2,323071,2,2913152
2025-09-03 13:05:56.086,422616,2,2,2,2,323046,2,7107363
2025-09-03 13:05:56.087,422539,2,2,2,2,322957,2,7107335
2025-09-03 13:05:56.087,422420,2,2,2,2,322810,2,2912794
2025-09-03 13:05:56.088,422401,2,2,2,2,322716,2,7107316
2025-09-03 13:05:56.088,422375,2,2,2,2,314490,2,5010056
2025-09-03 13:05:56.088,422286,2,2,2,2,314391,2,5010017
2025-09-03 13:05:56.088,405813,2,2,2,2,322799,2,7090672
2025-09-03 13:05:56.089,422148,2,2,2,2,322662,2,7106841
2025-09-03 13:05:56.089,422392,2,2,2,2,322570,2,7107061
2025-09-03 13:05:56.089,422384,2,2,2,2,314357,2,5009814
2025-09-03 13:05:56.090,406001,2,2,2,2,322533,2,7090557
2025-09-03 13:05:56.090,422371,2,2,2,2,322441,2,7106840
2025-09-03 13:05:56.090,422303,2,2,2,2,322425,2,7106815
2025-09-03 13:05:56.090,405984,2,2,2,2,322383,2,2896108
2025-09-03 13:05:56.091,422290,2,2,2,2,322325,2,5009545
2025-09-03 13:05:56.091,422337,2,2,2,2,322557,2,7090215
2025-09-03 13:05:56.091,422196,2,2,2,2,322530,2,7090180
2025-09-03 13:05:56.091,422252,2,2,2,2,322449,2,7106791
2025-09-03 13:05:56.092,405790,2,2,2,2,322428,2,2912391
2025-09-03 13:05:56.092,422154,2,2,2,2,322327,2,7106590
2025-09-03 13:05:56.092,422129,2,2,2,2,322293,2,7106546
2025-09-03 13:05:56.092,422113,2,2,2,2,322199,2,2912134
2025-09-03 13:05:56.093,405628,2,2,2,2,322076,2,7090159
2025-09-03 13:05:56.093,405631,2,2,2,2,322069,2,7090073
2025-09-03 13:05:56.093,422016,2,2,2,2,322062,2,7106434
2025-09-03 13:05:56.094,422012,2,2,2,2,313859,2,2912112
2025-09-03 13:05:56.094,422009,2,2,2,2,322287,2,7106327
2025-09-03 13:05:56.094,421999,2,2,2,2,322200,2,7106297
2025-09-03 13:05:56.094,405605,2,2,2,2,322179,2,2895517
2025-09-03 13:05:56.095,421918,2,2,2,2,322153,2,7106241
2025-09-03 13:05:56.095,421910,2,2,2,2,322072,2,2911846
2025-09-03 13:05:56.095,421901,2,2,2,2,322051,2,2911752
2025-09-03 13:05:56.095,421903,2,2,2,2,322035,2,7106289
2025-09-03 13:05:56.096,405522,2,2,2,2,321991,2,2895586
2025-09-03 13:05:56.096,421890,2,2,2,2,321935,2,7106175
2025-09-03 13:05:56.096,422143,2,2,2,2,321923,2,7106156
2025-09-03 13:05:56.096,422138,2,2,2,2,321907,2,2911764
2025-09-03 13:05:56.097,422116,2,2,2,2,321813,2,7106027
2025-09-03 13:05:56.097,405687,2,2,2,2,322044,2,7089547
2025-09-03 13:05:56.097,405636,2,2,2,2,322014,2,7089510
2025-09-03 13:05:56.097,421996,2,2,2,2,321917,2,7106047
2025-09-03 13:05:56.098,421909,2,2,2,2,321888,2,2911641
2025-09-03 13:05:56.098,421887,2,2,2,2,321790,2,7105842
2025-09-03 13:05:56.098,421876,2,2,2,2,321774,2,7105815
2025-09-03 13:05:56.098,421868,2,2,2,2,321695,2,7105796
2025-09-03 13:05:56.099,421874,2,2,2,2,313502,2,5008638
2025-09-03 13:05:56.099,413681,2,2,2,2,321685,2,2911476
2025-09-03 13:05:56.099,413678,2,2,2,2,321670,2,2911457
2025-09-03 13:05:56.099,421856,2,2,2,2,321647,2,7105735
2025-09-03 13:05:56.100,421780,2,2,2,2,321565,2,7105589
2025-09-03 13:05:56.100,405309,2,2,2,2,321791,2,7089204
2025-09-03 13:05:56.100,405290,2,2,2,2,321759,2,7089397
2025-09-03 13:05:56.101,421648,2,2,2,2,321642,2,7105660
2025-09-03 13:05:56.101,421638,2,2,2,2,313363,2,5008483
2025-09-03 13:05:56.101,421633,2,2,2,2,321538,2,5008396
2025-09-03 13:05:56.101,421871,2,2,2,2,313319,2,2911213
2025-09-03 13:05:56.102,421845,2,2,2,2,321472,2,7089096
2025-09-03 13:05:56.102,421688,2,2,2,2,321305,2,7105307
2025-09-03 13:05:56.102,405363,2,2,2,2,321292,2,2894598
2025-09-03 13:05:56.102,421751,2,2,2,2,321282,2,7105527
2025-09-03 13:05:56.103,421738,2,2,2,2,313324,2,5008278
2025-09-03 13:05:56.103,421662,2,2,2,2,321434,2,7105401
2025-09-03 13:05:56.103,421737,2,2,2,2,321434,2,7105394
2025-09-03 13:05:56.103,421738,2,2,2,2,321423,2,7105376
2025-09-03 13:05:56.104,405301,2,2,2,2,321328,2,7088888
2025-09-03 13:05:56.104,421632,2,2,2,2,321288,2,7088777
2025-09-03 13:05:56.104,421610,2,2,2,2,321252,2,2910819
2025-09-03 13:05:56.104,421586,2,2,2,2,321084,2,7105273
2025-09-03 13:05:56.105,421515,2,2,2,2,321125,2,7105248
2025-09-03 13:05:56.105,421495,2,2,2,2,321029,2,7105143
2025-09-03 13:05:56.105,405065,2,2,2,2,321258,2,7088693
2025-09-03 13:05:56.106,413190,2,2,2,2,321144,2,2910602
2025-09-03 13:05:56.106,421617,2,2,2,2,321047,2,7104799
2025-09-03 13:05:56.106,421530,2,2,2,2,321004,2,7105007
2025-09-03 13:05:56.106,405117,2,2,2,2,320965,2,7088510
2025-09-03 13:05:56.107,421407,2,2,2,2,320864,2,7104775
2025-09-03 13:05:56.107,405019,2,2,2,2,320818,2,2902253
2025-09-03 13:05:56.107,405102,2,2,2,2,320824,2,2902251
2025-09-03 13:05:56.107,421439,2,2,2,2,320795,2,7104737
2025-09-03 13:05:56.108,421504,2,2,2,2,312591,2,5007503
2025-09-03 13:05:56.108,413204,2,2,2,2,320891,2,2902170
2025-09-03 13:05:56.109,421385,2,2,2,2,320866,2,7104571
2025-09-03 13:05:56.109,421382,2,2,2,2,312596,2,2910306
2025-09-03 13:05:56.109,421386,2,2,2,2,312595,2,2910229
2025-09-03 13:05:56.109,421382,2,2,2,2,320767,2,7088125
2025-09-03 13:05:56.110,421364,2,2,2,2,320738,2,7104411
2025-09-03 13:05:56.110,421368,2,2,2,2,320665,2,7104459
2025-09-03 13:05:56.110,421378,2,2,2,2,320661,2,7104314
2025-09-03 13:05:56.110,421373,2,2,2,2,312446,2,5007133
2025-09-03 13:05:56.111,421365,2,2,2,2,320556,2,7087876
2025-09-03 13:05:56.111,421370,2,2,2,2,320614,2,7104496
2025-09-03 13:05:56.111,421356,2,2,2,2,320522,2,7104397
2025-09-03 13:05:56.111,404884,2,2,2,2,320743,2,7087969
2025-09-03 13:05:56.112,421264,2,2,2,2,312469,2,5007114
2025-09-03 13:05:56.112,421320,2,2,2,2,320706,2,7104241
2025-09-03 13:05:56.112,421181,2,2,2,2,320560,2,7104212
2025-09-03 13:05:56.112,421232,2,2,2,2,320534,2,7104114
2025-09-03 13:05:56.113,404763,2,2,2,2,320499,2,2893325
2025-09-03 13:05:56.113,421355,2,2,2,2,320363,2,7104121
2025-09-03 13:05:56.113,413154,2,2,2,2,320279,2,2909727
2025-09-03 13:05:56.114,421279,2,2,2,2,320266,2,7104012
2025-09-03 13:05:56.114,404916,2,2,2,2,320501,2,7087603
2025-09-03 13:05:56.114,404913,2,2,2,2,320485,2,7087584
2025-09-03 13:05:56.114,421252,2,2,2,2,320399,2,7103876
2025-09-03 13:05:56.115,413041,2,2,2,2,320370,2,2909471
2025-09-03 13:05:56.115,421224,2,2,2,2,320353,2,7103750
2025-09-03 13:05:56.115,421151,2,2,2,2,320271,2,7103986
2025-09-03 13:05:56.115,404785,2,2,2,2,320244,2,7087510
2025-09-03 13:05:56.116,421116,2,2,2,2,320151,2,7103856
2025-09-03 13:05:56.116,412898,2,2,2,2,320120,2,2901255
2025-09-03 13:05:56.116,412812,2,2,2,2,320020,2,2901150
2025-09-03 13:05:56.116,420925,2,2,2,2,320252,2,7103685
2025-09-03 13:05:56.117,404599,2,2,2,2,320237,2,2892916
2025-09-03 13:05:56.117,412682,2,2,2,2,320097,2,2909409
2025-09-03 13:05:56.118,421116,2,2,2,2,320009,2,7103684
2025-09-03 13:05:56.118,404685,2,2,2,2,319984,2,7087204
2025-09-03 13:05:56.118,421089,2,2,2,2,311702,2,5006347
2025-09-03 13:05:56.118,421013,2,2,2,2,319872,2,7103472
2025-09-03 13:05:56.119,421085,2,2,2,2,319857,2,7103445
2025-09-03 13:05:56.119,421081,2,2,2,2,319774,2,7103295
2025-09-03 13:05:56.119,421014,2,2,2,2,319759,2,5006187
2025-09-03 13:05:56.120,421002,2,2,2,2,311802,2,2908945
2025-09-03 13:05:56.120,404628,2,2,2,2,319985,2,2900990
2025-09-03 13:05:56.120,421023,2,2,2,2,319986,2,7103483
2025-09-03 13:05:56.120,404627,2,2,2,2,319936,2,2892771
2025-09-03 13:05:56.121,420997,2,2,2,2,319880,2,7103425
2025-09-03 13:05:56.121,420927,2,2,2,2,319798,2,7086881
2025-09-03 13:05:56.121,421062,2,2,2,2,319787,2,7086862
2025-09-03 13:05:56.121,420987,2,2,2,2,319763,2,7103213
2025-09-03 13:05:56.122,420978,2,2,2,2,319746,2,7103124
2025-09-03 13:05:56.122,420979,2,2,2,2,311549,2,5005954
2025-09-03 13:05:56.122,420983,2,2,2,2,311538,2,5005938
2025-09-03 13:05:56.122,420979,2,2,2,2,319715,2,2908701
2025-09-03 13:05:56.123,420907,2,2,2,2,319695,2,7102981
2025-09-03 13:05:56.123,404542,2,2,2,2,319543,2,7086821
2025-09-03 13:05:56.123,404506,2,2,2,2,319529,2,7086733
2025-09-03 13:05:56.123,404537,2,2,2,2,319519,2,7086713
2025-09-03 13:05:56.124,420868,2,2,2,2,319730,2,7102967
2025-09-03 13:05:56.124,420847,2,2,2,2,319629,2,7102859
2025-09-03 13:05:56.124,420837,2,2,2,2,319612,2,7102826
2025-09-03 13:05:56.125,404415,2,2,2,2,319528,2,7086349
2025-09-03 13:05:56.125,412557,2,2,2,2,319495,2,2908647
2025-09-03 13:05:56.125,412550,2,2,2,2,319477,2,2908558
2025-09-03 13:05:56.125,404357,2,2,2,2,319439,2,2900348
2025-09-03 13:05:56.126,420729,2,2,2,2,303004,2,7102750
2025-09-03 13:05:56.126,404259,2,2,2,2,302906,2,7086320
2025-09-03 13:05:56.126,404249,2,2,2,2,302885,2,7086219
2025-09-03 13:05:56.127,404457,2,2,2,2,319391,2,2900208
2025-09-03 13:05:56.127,420750,2,2,2,2,302974,2,5005446
2025-09-03 13:05:56.127,420732,2,2,2,2,302877,2,7102494
2025-09-03 13:05:56.127,420730,2,2,2,2,311061,2,2908176
2025-09-03 13:05:56.128,404349,2,2,2,2,319232,2,2891748
2025-09-03 13:05:56.128,404333,2,2,2,2,319174,2,2899843
2025-09-03 13:05:56.128,420630,2,2,2,2,302725,2,7085849
2025-09-03 13:05:56.129,420637,2,2,2,2,310916,2,4988689
2025-09-03 13:05:56.129,404230,2,2,2,2,319228,2,2899832
2025-09-03 13:05:56.130,420594,2,2,2,2,302820,2,7085841
2025-09-03 13:05:56.130,420507,2,2,2,2,319111,2,2891496
2025-09-03 13:05:56.130,420482,2,2,2,2,310882,2,2891391
2025-09-03 13:05:56.130,420398,2,2,2,2,302595,2,7085595
2025-09-03 13:05:56.131,404067,2,2,2,2,318927,2,2899711
2025-09-03 13:05:56.131,420382,2,2,2,2,302495,2,7085802
2025-09-03 13:05:56.131,420452,2,2,2,2,302483,2,7085785
2025-09-03 13:05:56.131,420448,2,2,2,2,310660,2,2891398
2025-09-03 13:05:56.132,420377,2,2,2,2,302388,2,7085615
2025-09-03 13:05:56.132,403988,2,2,2,2,318786,2,2891291
2025-09-03 13:05:56.132,420374,2,2,2,2,302363,2,7085583
2025-09-03 13:05:56.132,404025,2,2,2,2,302356,2,7085571
2025-09-03 13:05:56.133,420450,2,2,2,2,310551,2,4988417
2025-09-03 13:05:56.133,420395,2,2,2,2,302354,2,7085566
2025-09-03 13:05:56.133,420393,2,2,2,2,302337,2,7085547
2025-09-03 13:05:56.133,420452,2,2,2,2,302578,2,7085467
2025-09-03 13:05:56.134,404035,2,2,2,2,318951,2,7085454
2025-09-03 13:05:56.134,412258,2,2,2,2,318875,2,2891138
2025-09-03 13:05:56.134,420448,2,2,2,2,318864,2,2891123
2025-09-03 13:05:56.134,420375,2,2,2,2,302396,2,7085343
2025-09-03 13:05:56.135,420362,2,2,2,2,302443,2,7085323
2025-09-03 13:05:56.135,403968,2,2,2,2,302360,2,7085553
2025-09-03 13:05:56.135,404221,2,2,2,2,302339,2,7085468
2025-09-03 13:05:56.136,420366,2,2,2,2,302318,2,7085504
2025-09-03 13:05:56.136,420355,2,2,2,2,302227,2,7085343
2025-09-03 13:05:56.136,420607,2,2,2,2,302211,2,7085325
2025-09-03 13:05:56.136,404214,2,2,2,2,302127,2,7085300
2025-09-03 13:05:56.137,420502,2,2,2,2,302093,2,7085192
2025-09-03 13:05:56.137,404084,2,2,2,2,318667,2,2898968
2025-09-03 13:05:56.137,403998,2,2,2,2,318640,2,2899193
2025-09-03 13:05:56.137,420361,2,2,2,2,302189,2,7085262
2025-09-03 13:05:56.138,403964,2,2,2,2,318483,2,7085164
2025-09-03 13:05:56.138,412054,2,2,2,2,318336,2,2898819
2025-09-03 13:05:56.139,420293,2,2,2,2,301927,2,7084832
2025-09-03 13:05:56.139,403782,2,2,2,2,301826,2,7085006
2025-09-03 13:05:56.139,403725,2,2,2,2,302047,2,7084932
2025-09-03 13:05:56.140,420346,2,2,2,2,301951,2,7084806
2025-09-03 13:05:56.140,420334,2,2,2,2,301929,2,7084772
2025-09-03 13:05:56.140,420324,2,2,2,2,301846,2,7084743
2025-09-03 13:05:56.140,420254,2,2,2,2,301826,2,7084648
2025-09-03 13:05:56.141,403918,2,2,2,2,301797,2,7084799
2025-09-03 13:05:56.141,403847,2,2,2,2,318090,2,2898587
2025-09-03 13:05:56.141,403833,2,2,2,2,318027,2,2898553
2025-09-03 13:05:56.141,420126,2,2,2,2,301823,2,7084555
2025-09-03 13:05:56.142,420114,2,2,2,2,301795,2,7084519
2025-09-03 13:05:56.142,420098,2,2,2,2,301629,2,7084329
2025-09-03 13:05:56.142,420070,2,2,2,2,301587,2,7084534
2025-09-03 13:05:56.143,403597,2,2,2,2,317937,2,2890118
2025-09-03 13:05:56.143,419972,2,2,2,2,309732,2,2890089
2025-09-03 13:05:56.143,419981,2,2,2,2,309730,2,4987163
2025-09-03 13:05:56.143,411785,2,2,2,2,317843,2,2889979
2025-09-03 13:05:56.144,419889,2,2,2,2,301422,2,7084239
2025-09-03 13:05:56.144,419863,2,2,2,2,301319,2,7084064
2025-09-03 13:05:56.144,403505,2,2,2,2,317937,2,7084038
2025-09-03 13:05:56.144,419847,2,2,2,2,301468,2,7084264
2025-09-03 13:05:56.145,411903,2,2,2,2,317830,2,2889864
2025-09-03 13:05:56.145,420085,2,2,2,2,301429,2,7084141
2025-09-03 13:05:56.145,420068,2,2,2,2,301335,2,7084042
2025-09-03 13:05:56.145,419984,2,2,2,2,301305,2,4986856
2025-09-03 13:05:56.146,403590,2,2,2,2,301284,2,7083918
2025-09-03 13:05:56.146,419899,2,2,2,2,301259,2,7083824
2025-09-03 13:05:56.146,411762,2,2,2,2,317559,2,2889492
2025-09-03 13:05:56.146,419883,2,2,2,2,301153,2,7084023
2025-09-03 13:05:56.147,419953,2,2,2,2,301081,2,7084009
2025-09-03 13:05:56.147,419882,2,2,2,2,301309,2,7083900
2025-09-03 13:05:56.148,419894,2,2,2,2,301307,2,7083819
2025-09-03 13:05:56.148,419947,2,2,2,2,309481,2,4986643
2025-09-03 13:05:56.148,419858,2,2,2,2,301189,2,4986604
2025-09-03 13:05:56.148,403465,2,2,2,2,301107,2,7083704
2025-09-03 13:05:56.149,419851,2,2,2,2,301077,2,7083578
2025-09-03 13:05:56.149,419841,2,2,2,2,301051,2,7083552
2025-09-03 13:05:56.149,419820,2,2,2,2,301026,2,4986623
2025-09-03 13:05:56.150,403389,2,2,2,2,301003,2,7083716
2025-09-03 13:05:56.150,419727,2,2,2,2,300914,2,7083662
2025-09-03 13:05:56.150,419706,2,2,2,2,300818,2,7083626
2025-09-03 13:05:56.150,403312,2,2,2,2,317436,2,2897416
2025-09-03 13:05:56.151,419689,2,2,2,2,301036,2,7083506
2025-09-03 13:05:56.151,419621,2,2,2,2,301025,2,7083458
2025-09-03 13:05:56.151,419614,2,2,2,2,301008,2,7083404
2025-09-03 13:05:56.152,403453,2,2,2,2,317243,2,2897166
2025-09-03 13:05:56.152,419585,2,2,2,2,300825,2,7083265
2025-09-03 13:05:56.152,419832,2,2,2,2,300806,2,7083502
2025-09-03 13:05:56.152,419813,2,2,2,2,317159,2,2889101
2025-09-03 13:05:56.153,419803,2,2,2,2,300751,2,7083313
2025-09-03 13:05:56.153,403354,2,2,2,2,317120,2,2889059
2025-09-03 13:05:56.153,403354,2,2,2,2,317042,2,2888974
2025-09-03 13:05:56.153,419724,2,2,2,2,300568,2,7083248
2025-09-03 13:05:56.154,419709,2,2,2,2,308990,2,2888849
2025-09-03 13:05:56.154,419636,2,2,2,2,300777,2,7083061
2025-09-03 13:05:56.154,419641,2,2,2,2,300769,2,7083045
2025-09-03 13:05:56.154,419697,2,2,2,2,300686,2,7083263
2025-09-03 13:05:56.155,403267,2,2,2,2,300595,2,7083166
2025-09-03 13:05:56.155,411419,2,2,2,2,317024,2,2888837
2025-09-03 13:05:56.155,411405,2,2,2,2,316936,2,2888735
2025-09-03 13:05:56.155,419576,2,2,2,2,300519,2,7082995
2025-09-03 13:05:56.156,419564,2,2,2,2,300427,2,7082895
2025-09-03 13:05:56.156,419559,2,2,2,2,300412,2,7082865
2025-09-03 13:05:56.156,403173,2,2,2,2,300336,2,7082811
2025-09-03 13:05:56.156,419469,2,2,2,2,316685,2,2888689
2025-09-03 13:05:56.157,419379,2,2,2,2,300519,2,7082951
2025-09-03 13:05:56.157,419433,2,2,2,2,300435,2,4985704
2025-09-03 13:05:56.157,419349,2,2,2,2,300401,2,7082747
2025-09-03 13:05:56.157,402950,2,2,2,2,300307,2,7082678
2025-09-03 13:05:56.158,419557,2,2,2,2,300190,2,7082512
2025-09-03 13:05:56.158,419533,2,2,2,2,300158,2,7082727
2025-09-03 13:05:56.158,419445,2,2,2,2,300059,2,7082620
2025-09-03 13:05:56.159,419434,2,2,2,2,308229,2,4985370
2025-09-03 13:05:56.159,402944,2,2,2,2,316534,2,2896245
2025-09-03 13:05:56.160,419317,2,2,2,2,300060,2,7082258
2025-09-03 13:05:56.160,402925,2,2,2,2,300043,2,7082486
2025-09-03 13:05:56.160,402924,2,2,2,2,300033,2,7082434
2025-09-03 13:05:56.161,419301,2,2,2,2,300002,2,7082352
2025-09-03 13:05:56.161,419225,2,2,2,2,299920,2,7082261
2025-09-03 13:05:56.161,419196,2,2,2,2,299882,2,7082215
2025-09-03 13:05:56.161,419185,2,2,2,2,307987,2,4984966
2025-09-03 13:05:56.162,410989,2,2,2,2,316167,2,2887794
2025-09-03 13:05:56.162,402711,2,2,2,2,316355,2,2895879
2025-09-03 13:05:56.162,402688,2,2,2,2,316287,2,2896031
2025-09-03 13:05:56.162,402889,2,2,2,2,316187,2,7082101
2025-09-03 13:05:56.163,419226,2,2,2,2,299774,2,7082000
2025-09-03 13:05:56.163,419281,2,2,2,2,299741,2,7081956
2025-09-03 13:05:56.163,419284,2,2,2,2,299671,2,7081941
2025-09-03 13:05:56.164,402833,2,2,2,2,316105,2,7081855
2025-09-03 13:05:56.164,419200,2,2,2,2,316006,2,2887446
2025-09-03 13:05:56.164,419094,2,2,2,2,307951,2,2887575
2025-09-03 13:05:56.164,410864,2,2,2,2,316029,2,2887521
2025-09-03 13:05:56.165,419040,2,2,2,2,299619,2,7081732
2025-09-03 13:05:56.165,419047,2,2,2,2,299616,2,7081727
2025-09-03 13:05:56.165,402672,2,2,2,2,299551,2,7081719
2025-09-03 13:05:56.165,418968,2,2,2,2,299521,2,7081620
2025-09-03 13:05:56.166,410762,2,2,2,2,315882,2,2887289
2025-09-03 13:05:56.166,418949,2,2,2,2,299419,2,7081571
2025-09-03 13:05:56.166,419021,2,2,2,2,299414,2,7081496
2025-09-03 13:05:56.166,418969,2,2,2,2,299414,2,4984342
2025-09-03 13:05:56.167,402651,2,2,2,2,299470,2,7081478
2025-09-03 13:05:56.167,402578,2,2,2,2,315774,2,2887415
2025-09-03 13:05:56.167,410772,2,2,2,2,315764,2,2887406
2025-09-03 13:05:56.167,419044,2,2,2,2,299379,2,7081710
2025-09-03 13:05:56.168,419058,2,2,2,2,299384,2,4984561
2025-09-03 13:05:56.168,419065,2,2,2,2,299319,2,7081705
2025-09-03 13:05:56.168,419069,2,2,2,2,299371,2,7081613
2025-09-03 13:05:56.169,402664,2,2,2,2,315659,2,2887273
2025-09-03 13:05:56.169,418957,2,2,2,2,307687,2,4984320
2025-09-03 13:05:56.169,418952,2,2,2,2,307605,2,4984300
2025-09-03 13:05:56.169,419012,2,2,2,2,299463,2,7081398
2025-09-03 13:05:56.170,402501,2,2,2,2,315671,2,7081237
2025-09-03 13:05:56.170,402455,2,2,2,2,315644,2,7081463
2025-09-03 13:05:56.170,418821,2,2,2,2,299167,2,7081364
2025-09-03 13:05:56.171,419061,2,2,2,2,307332,2,2887026
2025-09-03 13:05:56.171,419056,2,2,2,2,299122,2,7081242
2025-09-03 13:05:56.171,419049,2,2,2,2,299108,2,7081216
2025-09-03 13:05:56.171,402576,2,2,2,2,315394,2,2886804
2025-09-03 13:05:56.172,418945,2,2,2,2,299237,2,7081009
2025-09-03 13:05:56.172,410741,2,2,2,2,315530,2,2886666
2025-09-03 13:05:56.172,410726,2,2,2,2,315500,2,2886880
2025-09-03 13:05:56.172,418854,2,2,2,2,299036,2,7081159
2025-09-03 13:05:56.173,418918,2,2,2,2,299024,2,7081072
2025-09-03 13:05:56.173,418841,2,2,2,2,299002,2,7080976
2025-09-03 13:05:56.173,418835,2,2,2,2,298989,2,7080955
2025-09-03 13:05:56.173,410636,2,2,2,2,315360,2,2886627
2025-09-03 13:05:56.174,418815,2,2,2,2,298950,2,7080897
2025-09-03 13:05:56.174,418811,2,2,2,2,298869,2,4983657
2025-09-03 13:05:56.174,418814,2,2,2,2,298865,2,4983578
2025-09-03 13:05:56.174,402435,2,2,2,2,298790,2,7080709
2025-09-03 13:05:56.175,418802,2,2,2,2,299001,2,7080898
2025-09-03 13:05:56.175,418790,2,2,2,2,298910,2,7080739
2025-09-03 13:05:56.175,418709,2,2,2,2,298876,2,7080695
2025-09-03 13:05:56.176,402319,2,2,2,2,298794,2,7080602
2025-09-03 13:05:56.176,410512,2,2,2,2,315233,2,2886282
2025-09-03 13:05:56.176,418621,2,2,2,2,298742,2,7080465
2025-09-03 13:05:56.177,418665,2,2,2,2,298645,2,7080683
2025-09-03 13:05:56.177,402190,2,2,2,2,298540,2,7080569
2025-09-03 13:05:56.177,402412,2,2,2,2,298496,2,7080450
2025-09-03 13:05:56.178,402303,2,2,2,2,315002,2,2885995
2025-09-03 13:05:56.178,418685,2,2,2,2,298606,2,4983059
2025-09-03 13:05:56.178,418672,2,2,2,2,298515,2,4983285
2025-09-03 13:05:56.178,402202,2,2,2,2,298484,2,7080334
2025-09-03 13:05:56.179,402169,2,2,2,2,314744,2,2885897
2025-09-03 13:05:56.179,402168,2,2,2,2,314699,2,2885873
2025-09-03 13:05:56.179,418559,2,2,2,2,298342,2,7080164
2025-09-03 13:05:56.180,418547,2,2,2,2,298261,2,4982923
2025-09-03 13:05:56.180,418530,2,2,2,2,298492,2,7080041
2025-09-03 13:05:56.180,418536,2,2,2,2,298488,2,7079962
2025-09-03 13:05:56.180,402076,2,2,2,2,314820,2,2885879
2025-09-03 13:05:56.181,402047,2,2,2,2,314816,2,7080074
2025-09-03 13:05:56.181,410131,2,2,2,2,314636,2,2885647
2025-09-03 13:05:56.181,418554,2,2,2,2,314602,2,2885610
2025-09-03 13:05:56.181,418555,2,2,2,2,298206,2,7079900
2025-09-03 13:05:56.182,418557,2,2,2,2,298133,2,7079824
2025-09-03 13:05:56.182,418551,2,2,2,2,298119,2,7079801
2025-09-03 13:05:56.182,418555,2,2,2,2,298110,2,7079785
2025-09-03 13:05:56.183,410344,2,2,2,2,314385,2,2885618
2025-09-03 13:05:56.183,402151,2,2,2,2,314375,2,2885608
2025-09-03 13:05:56.183,418531,2,2,2,2,298232,2,7079835
2025-09-03 13:05:56.183,402116,2,2,2,2,298221,2,7079823
2025-09-03 13:05:56.184,418535,2,2,2,2,298215,2,7079817
2025-09-03 13:05:56.184,418542,2,2,2,2,298216,2,7079878
2025-09-03 13:05:56.184,418539,2,2,2,2,298139,2,7079732
2025-09-03 13:05:56.184,418520,2,2,2,2,298107,2,7079698
2025-09-03 13:05:56.185,418447,2,2,2,2,298086,2,4982521
2025-09-03 13:05:56.185,410241,2,2,2,2,314381,2,2885274
2025-09-03 13:05:56.185,410223,2,2,2,2,314348,2,2885230
2025-09-03 13:05:56.186,418344,2,2,2,2,297881,2,7079447
2025-09-03 13:05:56.186,401982,2,2,2,2,297922,2,7079679
2025-09-03 13:05:56.186,401981,2,2,2,2,297783,2,7079627
2025-09-03 13:05:56.186,418323,2,2,2,2,297764,2,7079630
2025-09-03 13:05:56.187,410121,2,2,2,2,314128,2,2885236
2025-09-03 13:05:56.187,418324,2,2,2,2,297746,2,7079534
2025-09-03 13:05:56.187,418317,2,2,2,2,297728,2,7079446
2025-09-03 13:05:56.187,418297,2,2,2,2,297954,2,4982256
2025-09-03 13:05:56.188,418297,2,2,2,2,297930,2,7079350
2025-09-03 13:05:56.188,401902,2,2,2,2,314226,2,2884976
2025-09-03 13:05:56.188,401812,2,2,2,2,314127,2,2884865
2025-09-03 13:05:56.188,418248,2,2,2,2,297722,2,7079396
2025-09-03 13:05:56.189,418179,2,2,2,2,297709,2,4982157
2025-09-03 13:05:56.189,418111,2,2,2,2,297688,2,7079222
2025-09-03 13:05:56.189,418242,2,2,2,2,297677,2,7079202
2025-09-03 13:05:56.189,418166,2,2,2,2,297584,2,7079169
2025-09-03 13:05:56.190,401772,2,2,2,2,313915,2,2884837
2025-09-03 13:05:56.190,418144,2,2,2,2,297480,2,2884740
2025-09-03 13:05:56.190,418056,2,2,2,2,297703,2,2884632
2025-09-03 13:05:56.190,418300,2,2,2,2,297675,2,7079155
2025-09-03 13:05:56.191,418296,2,2,2,2,297595,2,7079064
2025-09-03 13:05:56.191,401865,2,2,2,2,297500,2,7079023
2025-09-03 13:05:56.191,401847,2,2,2,2,313855,2,7078913
2025-09-03 13:05:56.191,418192,2,2,2,2,297453,2,7078886
2025-09-03 13:05:56.192,418268,2,2,2,2,297448,2,7078838
2025-09-03 13:05:56.192,418274,2,2,2,2,297443,2,7078788
2025-09-03 13:05:56.192,418274,2,2,2,2,297367,2,7078765
2025-09-03 13:05:56.192,401804,2,2,2,2,313649,2,7078657
2025-09-03 13:05:56.193,418164,2,2,2,2,297227,2,7078804
2025-09-03 13:05:56.193,418095,2,2,2,2,297469,2,7078714
2025-09-03 13:05:56.193,409886,2,2,2,2,313832,2,2884376
2025-09-03 13:05:56.193,418063,2,2,2,2,297356,2,7078643
2025-09-03 13:05:56.194,401666,2,2,2,2,313713,2,2884243
2025-09-03 13:05:56.194,418024,2,2,2,2,297215,2,7078415
2025-09-03 13:05:56.194,409749,2,2,2,2,313502,2,2884322
2025-09-03 13:05:56.195,417988,2,2,2,2,297092,2,7078592
2025-09-03 13:05:56.195,401525,2,2,2,2,297004,2,7078497
2025-09-03 13:05:56.195,401532,2,2,2,2,297002,2,7078423
2025-09-03 13:05:56.195,417911,2,2,2,2,296990,2,7078406
2025-09-03 13:05:56.196,409707,2,2,2,2,313351,2,2884071
2025-09-03 13:05:56.196,417805,2,2,2,2,297116,2,7078199
2025-09-03 13:05:56.196,418022,2,2,2,2,297060,2,7078397
2025-09-03 13:05:56.196,417929,2,2,2,2,296957,2,4981133
2025-09-03 13:05:56.197,401601,2,2,2,2,296937,2,7078256
2025-09-03 13:05:56.197,409711,2,2,2,2,313226,2,2883851
2025-09-03 13:05:56.197,409699,2,2,2,2,313204,2,2883824
2025-09-03 13:05:56.197,417823,2,2,2,2,296804,2,7078106
2025-09-03 13:05:56.198,417895,2,2,2,2,296734,2,7078035
2025-09-03 13:05:56.198,409627,2,2,2,2,313342,2,2883606
2025-09-03 13:05:56.199,417797,2,2,2,2,296932,2,7078129
2025-09-03 13:05:56.199,401400,2,2,2,2,296844,2,4980887
2025-09-03 13:05:56.199,401390,2,2,2,2,296821,2,4980866
2025-09-03 13:05:56.199,401371,2,2,2,2,296726,2,7077955
2025-09-03 13:05:56.200,401203,2,2,2,2,296605,2,7077867
2025-09-03 13:05:56.200,401205,2,2,2,2,296601,2,7077858
2025-09-03 13:05:56.200,401260,2,2,2,2,296583,2,4980619
2025-09-03 13:05:56.201,401177,2,2,2,2,296551,2,2883433
2025-09-03 13:05:56.201,401160,2,2,2,2,312847,2,2883336
2025-09-03 13:05:56.201,409349,2,2,2,2,312834,2,2883575
2025-09-03 13:05:56.201,401401,2,2,2,2,313034,2,2883485
2025-09-03 13:05:56.202,401404,2,2,2,2,296675,2,7077844
2025-09-03 13:05:56.202,401401,2,2,2,2,296659,2,7077695
2025-09-03 13:05:56.202,401393,2,2,2,2,296641,2,7077668
2025-09-03 13:05:56.202,401383,2,2,2,2,296558,2,7077639
2025-09-03 13:05:56.203,401308,2,2,2,2,296466,2,7077609
2025-09-03 13:05:56.203,401303,2,2,2,2,296448,2,4980370
2025-09-03 13:05:56.203,401300,2,2,2,2,296434,2,7077503
2025-09-03 13:05:56.203,409470,2,2,2,2,312721,2,2883092
2025-09-03 13:05:56.204,401190,2,2,2,2,296244,2,7077619
2025-09-03 13:05:56.204,401169,2,2,2,2,312601,2,7077518
2025-09-03 13:05:56.204,401147,2,2,2,2,312822,2,7077476
2025-09-03 13:05:56.204,401085,2,2,2,2,296399,2,7077368
2025-09-03 13:05:56.205,401025,2,2,2,2,296299,2,2882958
2025-09-03 13:05:56.205,400933,2,2,2,2,296196,2,7077156
2025-09-03 13:05:56.205,400903,2,2,2,2,296093,2,7077363
2025-09-03 13:05:56.205,401134,2,2,2,2,296055,2,7077253
2025-09-03 13:05:56.206,401082,2,2,2,2,295956,2,7077146
2025-09-03 13:05:56.206,409223,2,2,2,2,312562,2,2882797
2025-09-03 13:05:56.206,409209,2,2,2,2,312470,2,2882697
2025-09-03 13:05:56.206,400930,2,2,2,2,296046,2,7076890
2025-09-03 13:05:56.207,400902,2,2,2,2,295942,2,7077100
2025-09-03 13:05:56.207,400889,2,2,2,2,295922,2,7077001
2025-09-03 13:05:56.207,400883,2,2,2,2,295901,2,7076937
2025-09-03 13:05:56.208,400866,2,2,2,2,312187,2,2882537
2025-09-03 13:05:56.208,400880,2,2,2,2,295805,2,4979682
2025-09-03 13:05:56.208,400883,2,2,2,2,295801,2,4979605
2025-09-03 13:05:56.208,400890,2,2,2,2,295726,2,7076737
2025-09-03 13:05:56.209,400901,2,2,2,2,312122,2,2882331
2025-09-03 13:05:56.209,400891,2,2,2,2,312067,2,2882554
2025-09-03 13:05:56.209,400878,2,2,2,2,295917,2,7076827
2025-09-03 13:05:56.210,400835,2,2,2,2,295896,2,7076732
2025-09-03 13:05:56.210,400743,2,2,2,2,312065,2,2882184
2025-09-03 13:05:56.211,400663,2,2,2,2,295660,2,7076394
2025-09-03 13:05:56.211,400656,2,2,2,2,295642,2,7076367
2025-09-03 13:05:56.211,400649,2,2,2,2,295622,2,7076597
2025-09-03 13:05:56.212,400880,2,2,2,2,311862,2,2882164
