Timestamp,Ch1,Ch2,Ch3,Ch4,Ch5,Ch6,Ch7,Ch8
2025-09-03 13:06:58.690,8230613,5044108,7083402,6588022,2,2,2,2
2025-09-03 13:06:58.690,8230632,7141340,7083419,6604424,2,2,2,2
2025-09-03 13:06:58.690,8247036,7141356,2897387,6588121,2,2,2,2
2025-09-03 13:06:58.690,8247053,7141370,2889211,6588137,2,2,2,2
2025-09-03 13:06:58.691,8230863,5044339,7083573,6588188,2,2,2,2
2025-09-03 13:06:58.691,8230891,5044366,7083728,6588280,2,2,2,2
2025-09-03 13:06:58.691,8230909,2947296,7083743,6588292,2,2,2,2
2025-09-03 13:06:58.691,8247050,7141612,2889449,6588364,2,2,2,2
2025-09-03 13:06:58.691,4052765,7141376,2889463,6588376,2,2,2,2
2025-09-03 13:06:58.692,8230753,2947080,7083770,6588309,2,2,2,2
2025-09-03 13:06:58.692,8230714,7141474,7083537,6588393,2,2,2,2
2025-09-03 13:06:58.692,8247236,7141487,7083546,6588400,2,2,2,2
2025-09-03 13:06:58.692,8230717,5044324,7083571,6588390,2,2,2,2
2025-09-03 13:06:58.692,8230782,7141440,7083540,2394085,2,2,2,2
2025-09-03 13:06:58.693,8230807,2947191,7083563,4491257,2,2,2,2
2025-09-03 13:06:58.693,8230895,2947209,7083583,4491018,2,2,2,2
2025-09-03 13:06:58.693,4036610,7141591,4986511,6604601,2,2,2,2
2025-09-03 13:06:58.693,8230928,7141601,7083712,6588259,2,2,2,2
2025-09-03 13:06:58.694,8231008,7141615,7083762,2410352,2,2,2,2
2025-09-03 13:06:58.694,8231020,7141624,7083771,2410360,2,2,2,2
2025-09-03 13:06:58.694,8247411,7141628,2889472,6588286,2,2,2,2
2025-09-03 13:06:58.695,8247440,7141657,2889499,6588379,2,2,2,2
2025-09-03 13:06:58.695,8231134,5044584,7083818,6588390,2,2,2,2
2025-09-03 13:06:58.695,8231151,7141753,7083896,2410486,2,2,2,2
2025-09-03 13:06:58.695,8247298,7141770,2897800,6588423,2,2,2,2
2025-09-03 13:06:58.696,4053116,7141883,2889723,6588466,2,2,2,2
2025-09-03 13:06:58.696,8231053,2947341,7083786,6588548,2,2,2,2
2025-09-03 13:06:58.697,4036843,7141669,4986726,6604990,2,2,2,2
2025-09-03 13:06:58.697,8247549,7141753,7083898,6588655,2,2,2,2
2025-09-03 13:06:58.698,4053270,7141778,2889624,6588423,2,2,2,2
2025-09-03 13:06:58.698,8231268,2947485,7084006,4491280,2,2,2,2
2025-09-03 13:06:58.698,8231291,2947568,7084025,4491360,2,2,2,2
2025-09-03 13:06:58.698,4037013,7141896,4986896,6604917,2,2,2,2
2025-09-03 13:06:58.698,8231419,7141998,7084146,6588566,2,2,2,2
2025-09-03 13:06:58.699,8231189,7142087,7084172,2410734,2,2,2,2
2025-09-03 13:06:58.699,8231274,7142073,7084190,2410751,2,2,2,2
2025-09-03 13:06:58.699,8231292,2947816,7084272,4491532,2,2,2,2
2025-09-03 13:06:58.699,4037021,7141896,7084046,6605129,2,2,2,2
2025-09-03 13:06:58.700,4053497,7141919,2889834,6588865,2,2,2,2
2025-09-03 13:06:58.700,8231430,5044840,7084083,6588806,2,2,2,2
2025-09-03 13:06:58.700,8231426,7141950,7084139,2410875,2,2,2,2
2025-09-03 13:06:58.700,8247804,7141911,2898022,6588725,2,2,2,2
2025-09-03 13:06:58.701,4053519,7141996,2889848,6588870,2,2,2,2
2025-09-03 13:06:58.701,8231450,2947699,7084226,6588811,2,2,2,2
2025-09-03 13:06:58.702,4037144,7141937,4987010,6605185,2,2,2,2
2025-09-03 13:06:58.702,8247854,7142021,7084180,6588816,2,2,2,2
2025-09-03 13:06:58.702,4053629,7142033,2889887,6588884,2,2,2,2
2025-09-03 13:06:58.703,8231563,2947742,7084271,4491676,2,2,2,2
2025-09-03 13:06:58.703,8231569,2947742,7084271,4491745,2,2,2,2
2025-09-03 13:06:58.703,4037345,7142124,4987133,6605262,2,2,2,2
2025-09-03 13:06:58.703,8231655,7142125,7084286,6588911,2,2,2,2
2025-09-03 13:06:58.704,8231672,2947835,7084304,6588924,2,2,2,2
2025-09-03 13:06:58.704,8247834,7142174,2898286,6588694,2,2,2,2
2025-09-03 13:06:58.704,8231527,2947941,7084342,4491546,2,2,2,2
2025-09-03 13:06:58.704,4037236,7142193,7084415,6605123,2,2,2,2
2025-09-03 13:06:58.705,8231562,7142275,7084438,2394483,2,2,2,2
2025-09-03 13:06:58.705,8231645,5045141,7084489,6588798,2,2,2,2
2025-09-03 13:06:58.705,8231652,7142329,7084527,2410883,2,2,2,2
2025-09-03 13:06:58.705,4037371,7142380,7084289,6605206,2,2,2,2
2025-09-03 13:06:58.706,4045676,7142160,4987240,6605307,2,2,2,2
2025-09-03 13:06:58.706,8231874,5045100,7084417,6588943,2,2,2,2
2025-09-03 13:06:58.706,8231908,2947984,7084515,6589038,2,2,2,2
2025-09-03 13:06:58.707,8248319,7142378,2890232,6589061,2,2,2,2
2025-09-03 13:06:58.707,8248094,7142407,7084561,6589087,2,2,2,2
2025-09-03 13:06:58.707,4053902,7142455,2890367,6588938,2,2,2,2
2025-09-03 13:06:58.708,8231905,2948231,7084748,6588954,2,2,2,2
2025-09-03 13:06:58.708,8231909,7142600,7084684,6605338,2,2,2,2
2025-09-03 13:06:58.708,8248301,7142544,2890390,6588958,2,2,2,2
2025-09-03 13:06:58.708,8231935,7142559,7084746,6589039,2,2,2,2
2025-09-03 13:06:58.709,8231965,5045499,7084554,6589066,2,2,2,2
2025-09-03 13:06:58.709,8248445,7142428,2890346,6589160,2,2,2,2
2025-09-03 13:06:58.709,8232085,2948207,7084606,4492028,2,2,2,2
2025-09-03 13:06:58.709,8232162,2948222,7084747,2394887,2,2,2,2
2025-09-03 13:06:58.710,8232188,5045399,7084736,6589281,2,2,2,2
2025-09-03 13:06:58.710,8231942,7142587,7084775,2411366,2,2,2,2
2025-09-03 13:06:58.710,8248335,7142559,2898670,6589228,2,2,2,2
2025-09-03 13:06:58.711,8248351,7142635,7084798,6589301,2,2,2,2
2025-09-03 13:06:58.711,4045932,7142644,4987653,6605625,2,2,2,2
2025-09-03 13:06:58.711,8231990,5045502,7084849,6589314,2,2,2,2
2025-09-03 13:06:58.711,8231995,2948354,7084822,6589318,2,2,2,2
2025-09-03 13:06:58.712,8232073,2948370,7084842,4492183,2,2,2,2
2025-09-03 13:06:58.712,8232085,2948379,7084855,4492258,2,2,2,2
2025-09-03 13:06:58.712,4054263,7142705,2890646,6589437,2,2,2,2
2025-09-03 13:06:58.713,8248579,7142777,2898915,6589189,2,2,2,2
2025-09-03 13:06:58.713,8232222,7142863,7085054,6605592,2,2,2,2
2025-09-03 13:06:58.713,8248773,7142895,2890595,6589306,2,2,2,2
2025-09-03 13:06:58.713,8232396,7142902,7084871,6589312,2,2,2,2
2025-09-03 13:06:58.714,8232402,5045756,7084876,6589318,2,2,2,2
2025-09-03 13:06:58.714,8232428,2948373,7084997,6589343,2,2,2,2
2025-09-03 13:06:58.714,8232443,2948452,7085015,4492265,2,2,2,2
2025-09-03 13:06:58.714,4037908,7142712,7085035,6605818,2,2,2,2
2025-09-03 13:06:58.715,8232288,7142792,7085044,2395139,2,2,2,2
2025-09-03 13:06:58.715,8232291,7142797,7085047,2395139,2,2,2,2
2025-09-03 13:06:58.715,8232310,7142851,7085068,2395156,2,2,2,2
2025-09-03 13:06:58.715,8248754,7142910,2899046,6589481,2,2,2,2
2025-09-03 13:06:58.716,4046306,7142924,4988020,6605872,2,2,2,2
2025-09-03 13:06:58.716,4046315,7142929,4988027,6605943,2,2,2,2
2025-09-03 13:06:58.716,4054505,7142922,2890867,6589490,2,2,2,2
2025-09-03 13:06:58.716,8232433,7142962,7085178,2395255,2,2,2,2
2025-09-03 13:06:58.717,8232441,2948636,7085119,4492412,2,2,2,2
2025-09-03 13:06:58.717,8232446,2948638,7085250,4492410,2,2,2,2
2025-09-03 13:06:58.717,4046434,7143104,2890985,6589654,2,2,2,2
2025-09-03 13:06:58.718,8232579,2948833,7085067,4492530,2,2,2,2
2025-09-03 13:06:58.718,8232673,7143165,7085157,6605834,2,2,2,2
2025-09-03 13:06:58.718,4038388,7142923,7085172,6605883,2,2,2,2
2025-09-03 13:06:58.718,8232698,7142923,7085176,6589468,2,2,2,2
2025-09-03 13:06:58.719,8248852,7143009,2890903,6589491,2,2,2,2
2025-09-03 13:06:58.719,8248950,7143044,2890998,6589645,2,2,2,2
2025-09-03 13:06:58.719,8232581,2948754,7085315,6589593,2,2,2,2
2025-09-03 13:06:58.719,4038298,7143154,7085340,6606030,2,2,2,2
2025-09-03 13:06:58.720,8232671,5046006,7085377,6589678,2,2,2,2
2025-09-03 13:06:58.720,8232687,7143174,7085423,2395385,2,2,2,2
2025-09-03 13:06:58.720,8232705,7143223,7085438,2395402,2,2,2,2
2025-09-03 13:06:58.720,8249141,7143270,2899341,6589721,2,2,2,2
2025-09-03 13:06:58.721,4046700,7143225,4988385,6606155,2,2,2,2
2025-09-03 13:06:58.721,4046711,7143363,4988399,6606194,2,2,2,2
2025-09-03 13:06:58.721,8232902,5046155,7085563,6589817,2,2,2,2
2025-09-03 13:06:58.721,8232930,7143364,7085334,2395538,2,2,2,2
2025-09-03 13:06:58.722,8249342,7143169,2891125,6589934,2,2,2,2
2025-09-03 13:06:58.722,8249124,7143269,2891163,6589713,2,2,2,2
2025-09-03 13:06:58.722,4046745,7143379,2891279,6589755,2,2,2,2
2025-09-03 13:06:58.723,8232953,7143401,7085668,6606227,2,2,2,2
2025-09-03 13:06:58.723,8249366,7077890,7085692,6606318,2,2,2,2
2025-09-03 13:06:58.723,8249399,7077892,2891391,6589935,2,2,2,2
2025-09-03 13:06:58.724,8249444,7077894,2891399,6589938,2,2,2,2
2025-09-03 13:06:58.724,8249447,7077897,2891401,6589939,2,2,2,2
2025-09-03 13:06:58.724,8249454,2883596,7085773,6589941,2,2,2,2
2025-09-03 13:06:58.724,4055166,7077911,7085723,6606334,2,2,2,2
2025-09-03 13:06:58.725,8249545,4980834,7085761,6589959,2,2,2,2
2025-09-03 13:06:58.725,8249502,7078018,2891265,6589980,2,2,2,2
2025-09-03 13:06:58.725,8249580,2883727,7085583,6590049,2,2,2,2
2025-09-03 13:06:58.726,4047101,7078115,4988517,6606450,2,2,2,2
2025-09-03 13:06:58.726,4046869,7078137,4988535,6606469,2,2,2,2
2025-09-03 13:06:58.726,8249371,4980990,7085698,6590092,2,2,2,2
2025-09-03 13:06:58.726,8249454,7077901,7085713,2395805,2,2,2,2
2025-09-03 13:06:58.727,8249464,2883600,7085778,4493026,2,2,2,2
2025-09-03 13:06:58.727,8249462,2883593,7085776,4492959,2,2,2,2
2025-09-03 13:06:58.727,4055148,7078143,4988553,6606521,2,2,2,2
2025-09-03 13:06:58.727,8249389,4980989,7085706,6590100,2,2,2,2
2025-09-03 13:06:58.728,8249476,7077898,7085723,6606562,2,2,2,2
2025-09-03 13:06:58.728,8249492,7077909,7085803,2412268,2,2,2,2
2025-09-03 13:06:58.728,8249544,7077999,2891524,6590205,2,2,2,2
2025-09-03 13:06:58.729,8249599,4980874,7085844,6589969,2,2,2,2
2025-09-03 13:06:58.729,8249587,7078010,2891523,6589952,2,2,2,2
2025-09-03 13:06:58.729,8249582,2883703,7085822,6590201,2,2,2,2
2025-09-03 13:06:58.729,8249586,7078009,2891518,6590200,2,2,2,2
2025-09-03 13:06:58.730,8249597,7078020,7085834,2395903,2,2,2,2
2025-09-03 13:06:58.730,4055316,7078044,2891618,6589969,2,2,2,2
2025-09-03 13:06:58.730,8249712,2883820,7085879,6590051,2,2,2,2
2025-09-03 13:06:58.731,8249808,7078148,7085969,6590074,2,2,2,2
2025-09-03 13:06:58.731,4055531,7078170,4988906,6606513,2,2,2,2
2025-09-03 13:06:58.731,8249618,4981122,7085839,6590197,2,2,2,2
2025-09-03 13:06:58.731,8249725,7078343,7085938,2395923,2,2,2,2
2025-09-03 13:06:58.732,8249749,2883843,7086028,4493165,2,2,2,2
2025-09-03 13:06:58.732,8249840,2883868,7086054,4493189,2,2,2,2
2025-09-03 13:06:58.732,4055559,7078199,4988927,6606778,2,2,2,2
2025-09-03 13:06:58.732,4047380,7078337,2908170,6590433,2,2,2,2
2025-09-03 13:06:58.733,8249886,7078344,7102489,2412520,2,2,2,2
2025-09-03 13:06:58.733,8249960,7078349,7102560,2412528,2,2,2,2
2025-09-03 13:06:58.733,8249971,7078293,2891881,6590450,2,2,2,2
2025-09-03 13:06:58.733,8250059,7078377,7086206,6590211,2,2,2,2
2025-09-03 13:06:58.734,8250096,4981258,7086299,6590307,2,2,2,2
2025-09-03 13:06:58.734,8249868,4981349,7086322,6590329,2,2,2,2
2025-09-03 13:06:58.734,8249862,7078469,7102706,2412412,2,2,2,2
2025-09-03 13:06:58.734,4055558,7078437,7102709,6606723,2,2,2,2
2025-09-03 13:06:58.735,4055684,7078624,2908279,6590450,2,2,2,2
2025-09-03 13:06:58.736,8249991,2884255,7102518,6590447,2,2,2,2
2025-09-03 13:06:58.736,8249919,7078539,7086185,6590435,2,2,2,2
2025-09-03 13:06:58.736,4055664,7078458,5005339,6606732,2,2,2,2
2025-09-03 13:06:58.736,8249973,7078523,7102494,2396035,2,2,2,2
2025-09-03 13:06:58.737,8249992,2884236,7102516,4493206,2,2,2,2
2025-09-03 13:06:58.737,8250081,2884322,7102667,4493291,2,2,2,2
2025-09-03 13:06:58.737,4055782,7078630,5005452,6606797,2,2,2,2
2025-09-03 13:06:58.737,4047588,7078632,2908299,6606830,2,2,2,2
2025-09-03 13:06:58.738,8250100,7078643,2900119,6590456,2,2,2,2
2025-09-03 13:06:58.738,8250099,7078640,7102612,2412530,2,2,2,2
2025-09-03 13:06:58.738,8250103,7078640,2891927,6590447,2,2,2,2
2025-09-03 13:06:58.739,8250119,4981500,7086309,6590451,2,2,2,2
2025-09-03 13:06:58.739,8250142,4981265,7086329,6590466,2,2,2,2
2025-09-03 13:06:58.739,8250228,2884195,7102734,6590485,2,2,2,2
2025-09-03 13:06:58.739,4055942,7078451,7102816,6606948,2,2,2,2
2025-09-03 13:06:58.740,4047769,7078599,5005686,6606898,2,2,2,2
2025-09-03 13:06:58.740,4056055,7078624,2908562,6590670,2,2,2,2
2025-09-03 13:06:58.740,8250366,2884321,7102936,6590606,2,2,2,2
2025-09-03 13:06:58.741,8250124,7078640,7086563,6590621,2,2,2,2
2025-09-03 13:06:58.741,8250143,7078660,7086579,6590703,2,2,2,2
2025-09-03 13:06:58.741,8250158,7078672,7086588,6590714,2,2,2,2
2025-09-03 13:06:58.741,8250247,7078725,7102738,2404366,2,2,2,2
2025-09-03 13:06:58.742,4056033,7078716,7102825,6606944,2,2,2,2
2025-09-03 13:06:58.742,8250360,2884494,7102913,4493425,2,2,2,2
2025-09-03 13:06:58.742,8250392,7078885,7086528,6590596,2,2,2,2
2025-09-03 13:06:58.743,8250474,7078901,2900464,6590677,2,2,2,2
2025-09-03 13:06:58.743,8250474,7078900,2900464,6590674,2,2,2,2
2025-09-03 13:06:58.743,8250480,7078902,2900466,6590674,2,2,2,2
2025-09-03 13:06:58.743,8250493,2884354,7102974,2396311,2,2,2,2
2025-09-03 13:06:58.744,8250582,4981533,7086616,6590702,2,2,2,2
2025-09-03 13:06:58.744,8250604,4981617,7086633,6590721,2,2,2,2
2025-09-03 13:06:58.744,8250611,2884470,7103022,6590724,2,2,2,2
2025-09-03 13:06:58.744,4056067,7078852,7103102,6607122,2,2,2,2
2025-09-03 13:06:58.745,4047895,7078871,5005970,6607139,2,2,2,2
2025-09-03 13:06:58.745,4047984,7078891,5006053,6607160,2,2,2,2
2025-09-03 13:06:58.745,4056196,7078905,2908916,6590917,2,2,2,2
2025-09-03 13:06:58.745,8250576,2884610,7103231,6590864,2,2,2,2
2025-09-03 13:06:58.746,8250566,7078907,7086839,6590848,2,2,2,2
2025-09-03 13:06:58.746,8250422,7078889,7086823,6590827,2,2,2,2
2025-09-03 13:06:58.746,8250562,7078902,7086839,6590839,2,2,2,2
2025-09-03 13:06:58.746,8250511,7078911,7102980,2404735,2,2,2,2
2025-09-03 13:06:58.747,4056220,7078923,7102991,6607238,2,2,2,2
2025-09-03 13:06:58.747,8250605,2884637,7103001,4493714,2,2,2,2
2025-09-03 13:06:58.747,4056319,7078958,5005931,6607300,2,2,2,2
2025-09-03 13:06:58.747,8250652,7079047,7086723,6590972,2,2,2,2
2025-09-03 13:06:58.748,8250741,7079096,7103125,2412812,2,2,2,2
2025-09-03 13:06:58.748,8250766,7079144,2900708,6590747,2,2,2,2
2025-09-03 13:06:58.748,8250818,7079162,2900731,6590760,2,2,2,2
2025-09-03 13:06:58.748,8250855,2884610,7103238,2396522,2,2,2,2
2025-09-03 13:06:58.749,8250872,4981780,7086876,6590842,2,2,2,2
2025-09-03 13:06:58.749,4056329,7079011,2909035,6590925,2,2,2,2
2025-09-03 13:06:58.749,8250638,2884716,7103279,6590864,2,2,2,2
2025-09-03 13:06:58.749,8250694,7079043,2900870,6590953,2,2,2,2
2025-09-03 13:06:58.750,4056578,7079195,2908954,6591036,2,2,2,2
2025-09-03 13:06:58.750,8250903,2884974,7103275,6591116,2,2,2,2
2025-09-03 13:06:58.751,4056677,7079228,5006201,6607542,2,2,2,2
2025-09-03 13:06:58.751,4056705,7079380,5006226,6607566,2,2,2,2
2025-09-03 13:06:58.751,8251101,7079408,7087055,6590987,2,2,2,2
2025-09-03 13:06:58.751,8251123,7079176,7103495,2404892,2,2,2,2
2025-09-03 13:06:58.752,8250897,2884963,7103520,4493939,2,2,2,2
2025-09-03 13:06:58.752,8250996,2884994,7103682,4493969,2,2,2,2
2025-09-03 13:06:58.752,4056719,7079386,7103643,6607561,2,2,2,2
2025-09-03 13:06:58.752,8251093,7079392,7087297,6591218,2,2,2,2
2025-09-03 13:06:58.753,8251027,7079353,7103646,2413292,2,2,2,2
2025-09-03 13:06:58.753,8251032,7079354,7103714,2413292,2,2,2,2
2025-09-03 13:06:58.753,8251070,7079323,2901149,6591210,2,2,2,2
2025-09-03 13:06:58.753,8251034,2885016,7103703,2396899,2,2,2,2
2025-09-03 13:06:58.754,8251112,4982245,7087300,6591216,2,2,2,2
2025-09-03 13:06:58.754,4056815,7079401,2909420,6591221,2,2,2,2
2025-09-03 13:06:58.754,8251127,7079410,7103736,2413308,2,2,2,2
2025-09-03 13:06:58.754,8251147,7079430,2901002,6591242,2,2,2,2
2025-09-03 13:06:58.755,4056984,7079564,2909343,6591441,2,2,2,2
2025-09-03 13:06:58.755,8251385,2885355,7103744,6591465,2,2,2,2
2025-09-03 13:06:58.756,8251147,7079677,7087378,6591478,2,2,2,2
2025-09-03 13:06:58.756,8251172,7079447,7087467,6591244,2,2,2,2
2025-09-03 13:06:58.756,4056955,7079464,2909567,6591260,2,2,2,2
2025-09-03 13:06:58.757,8251277,2885236,7103951,4494183,2,2,2,2
2025-09-03 13:06:58.757,8251282,2885239,7103957,4494185,2,2,2,2
2025-09-03 13:06:58.757,4056987,7079481,7103900,6607695,2,2,2,2
2025-09-03 13:06:58.757,8251360,7079547,7087550,6591347,2,2,2,2
2025-09-03 13:06:58.758,8251372,7079557,2909671,6591287,2,2,2,2
2025-09-03 13:06:58.758,8251381,7079559,7103982,2413431,2,2,2,2
2025-09-03 13:06:58.758,8251387,7079564,2901491,6591290,2,2,2,2
2025-09-03 13:06:58.758,4057100,7079642,7103998,6607751,2,2,2,2
2025-09-03 13:06:58.759,8251430,4982514,7087416,6591390,2,2,2,2
2025-09-03 13:06:58.759,8251449,4982537,7087439,6591471,2,2,2,2
2025-09-03 13:06:58.759,8251531,7079736,7103870,2405369,2,2,2,2
2025-09-03 13:06:58.759,8251583,7079785,2901391,6591492,2,2,2,2
2025-09-03 13:06:58.760,4049140,7079742,5006750,6607925,2,2,2,2
2025-09-03 13:06:58.760,4057189,7079917,2909710,6591551,2,2,2,2
2025-09-03 13:06:58.760,8251439,2885622,7104026,6591619,2,2,2,2
2025-09-03 13:06:58.761,8251452,7079684,7087720,6591632,2,2,2,2
2025-09-03 13:06:58.761,8251605,7079707,2893438,6591724,2,2,2,2
2025-09-03 13:06:58.761,4049149,7079743,2909923,6591507,2,2,2,2
2025-09-03 13:06:58.762,8251679,2885532,7104002,4494446,2,2,2,2
2025-09-03 13:06:58.762,8251774,2885626,7104027,4494472,2,2,2,2
2025-09-03 13:06:58.762,4057480,7079939,7104099,6608049,2,2,2,2
2025-09-03 13:06:58.762,8251858,7079946,7087723,6591642,2,2,2,2
2025-09-03 13:06:58.763,8251888,7080032,2909834,6591730,2,2,2,2
2025-09-03 13:06:58.763,8251662,7080061,2909930,6591760,2,2,2,2
2025-09-03 13:06:58.763,8251678,2885770,7104247,6591770,2,2,2,2
2025-09-03 13:06:58.763,8251756,2885784,7104262,4494693,2,2,2,2
2025-09-03 13:06:58.764,8251706,4983018,7087924,6591854,2,2,2,2
2025-09-03 13:06:58.764,8251844,4983033,7087936,6591861,2,2,2,2
2025-09-03 13:06:58.764,8251798,7079942,7104367,2405762,2,2,2,2
2025-09-03 13:06:58.764,8251848,7079949,2901882,6591948,2,2,2,2
2025-09-03 13:06:58.765,4049409,7079968,5007248,6608327,2,2,2,2
2025-09-03 13:06:58.765,4049432,7079986,5007330,6608376,2,2,2,2
2025-09-03 13:06:58.765,8251938,4982901,7088075,6591997,2,2,2,2
2025-09-03 13:06:58.765,8251946,2885751,7104494,6591996,2,2,2,2
2025-09-03 13:06:58.766,8251950,7080057,2893809,6591992,2,2,2,2
2025-09-03 13:06:58.766,8251967,7080078,2893569,6591745,2,2,2,2
2025-09-03 13:06:58.766,8252063,7080176,7104357,2405661,2,2,2,2
2025-09-03 13:06:58.767,8252137,7080187,7104366,6608230,2,2,2,2
2025-09-03 13:06:58.767,8252147,2885893,7104312,4494708,2,2,2,2
2025-09-03 13:06:58.767,4057855,7080204,7104387,6608253,2,2,2,2
2025-09-03 13:06:58.767,8251924,7080221,7088020,6591887,2,2,2,2
2025-09-03 13:06:58.768,8252026,7080322,2910205,6591988,2,2,2,2
2025-09-03 13:06:58.768,8252050,7080347,2910228,6592010,2,2,2,2
2025-09-03 13:06:58.768,8252059,2886047,7104536,6592011,2,2,2,2
2025-09-03 13:06:58.768,8252058,2886041,7104537,4494852,2,2,2,2
2025-09-03 13:06:58.769,8252063,7080350,7104609,2397704,2,2,2,2
2025-09-03 13:06:58.769,8252140,4983277,7088207,6592018,2,2,2,2
2025-09-03 13:06:58.769,8252161,7080197,7104643,2405991,2,2,2,2
2025-09-03 13:06:58.769,8252184,7080221,7104668,6608506,2,2,2,2
2025-09-03 13:06:58.770,4049780,7080244,5007604,6608526,2,2,2,2
2025-09-03 13:06:58.770,4057995,7080389,5007372,6608578,2,2,2,2
2025-09-03 13:06:58.770,4049814,7080398,2910228,6592236,2,2,2,2
2025-09-03 13:06:58.770,8252392,2886045,7088162,6592252,2,2,2,2
2025-09-03 13:06:58.771,8252410,7080432,2893936,6592008,2,2,2,2
2025-09-03 13:06:58.771,8252172,7080449,2893950,6592022,2,2,2,2
2025-09-03 13:06:58.771,8252197,7080471,7088278,6592109,2,2,2,2
2025-09-03 13:06:58.771,8252293,7080566,7104754,2406027,2,2,2,2
2025-09-03 13:06:58.772,8252390,7080661,7104783,6608616,2,2,2,2
2025-09-03 13:06:58.772,8252412,2886376,7104803,6592253,2,2,2,2
2025-09-03 13:06:58.772,4058113,7080683,7104873,6608638,2,2,2,2
2025-09-03 13:06:58.772,8252423,7080688,7088493,6592255,2,2,2,2
2025-09-03 13:06:58.773,8252427,7080685,2910576,6592250,2,2,2,2
2025-09-03 13:06:58.773,8252437,7080687,2910586,6592251,2,2,2,2
2025-09-03 13:06:58.773,8252491,7080452,2902415,6592270,2,2,2,2
2025-09-03 13:06:58.773,8252540,2886161,7104994,4495130,2,2,2,2
2025-09-03 13:06:58.774,8252610,4983319,7088583,6592285,2,2,2,2
2025-09-03 13:06:58.774,8252618,4983326,7088583,6592353,2,2,2,2
2025-09-03 13:06:58.774,8252614,2886172,7104995,6592283,2,2,2,2
2025-09-03 13:06:58.774,8252542,7080470,7104922,6608658,2,2,2,2
2025-09-03 13:06:58.775,4050050,7080477,5007845,6608696,2,2,2,2
2025-09-03 13:06:58.775,8252662,7080580,7104792,2406277,2,2,2,2
2025-09-03 13:06:58.775,8252423,2886291,7088425,6592400,2,2,2,2
2025-09-03 13:06:58.776,8252477,7080675,2894203,6592413,2,2,2,2
2025-09-03 13:06:58.776,8252534,7080695,2894225,6592495,2,2,2,2
2025-09-03 13:06:58.776,8252613,7080705,7088540,6592502,2,2,2,2
2025-09-03 13:06:58.776,8252559,7080715,7104993,2406395,2,2,2,2
2025-09-03 13:06:58.777,8252646,2886496,7105010,4495115,2,2,2,2
2025-09-03 13:06:58.777,8252649,2886501,7105011,6592264,2,2,2,2
2025-09-03 13:06:58.777,8252657,2886504,7105016,4495116,2,2,2,2
2025-09-03 13:06:58.777,4050182,7080760,5007880,6608696,2,2,2,2
2025-09-03 13:06:58.778,8252699,7080841,7105051,2406242,2,2,2,2
2025-09-03 13:06:58.778,8252776,7080882,7105125,2406248,2,2,2,2
2025-09-03 13:06:58.778,8252791,7080854,2902638,6592306,2,2,2,2
2025-09-03 13:06:58.778,8252812,2886631,7105086,4495231,2,2,2,2
2025-09-03 13:06:58.779,8252900,4983552,7088819,6592400,2,2,2,2
2025-09-03 13:06:58.779,8252913,4983567,7088831,6592414,2,2,2,2
2025-09-03 13:06:58.779,8252922,2886424,7088875,6592484,2,2,2,2
2025-09-03 13:06:58.779,8252678,7080733,7105273,6608882,2,2,2,2
2025-09-03 13:06:58.780,4050318,7080932,2910843,6592557,2,2,2,2
2025-09-03 13:06:58.781,8252901,4983806,7088847,6592644,2,2,2,2
2025-09-03 13:06:58.781,4058618,7080977,7105181,6609072,2,2,2,2
2025-09-03 13:06:58.781,4058632,7080985,7105260,6609087,2,2,2,2
2025-09-03 13:06:58.781,8252940,7081058,7088881,6592744,2,2,2,2
2025-09-03 13:06:58.781,8252948,7081064,7105269,2398445,2,2,2,2
2025-09-03 13:06:58.782,8253000,7081079,2902794,6592763,2,2,2,2
2025-09-03 13:06:58.782,8253046,7081090,2902810,6592516,2,2,2,2
2025-09-03 13:06:58.782,8253062,2886804,7105326,4495380,2,2,2,2
2025-09-03 13:06:58.782,4050568,7081180,5008239,6608947,2,2,2,2
2025-09-03 13:06:58.783,8253048,7081138,7105380,2406406,2,2,2,2
2025-09-03 13:06:58.783,8253044,7081099,7105306,2406655,2,2,2,2
2025-09-03 13:06:58.783,8253007,7081090,2902801,6592755,2,2,2,2
2025-09-03 13:06:58.783,8253038,2886785,7105299,4495603,2,2,2,2
2025-09-03 13:06:58.784,4050561,7081169,2911079,6592518,2,2,2,2
2025-09-03 13:06:58.784,4050589,7081189,2911103,6592536,2,2,2,2
2025-09-03 13:06:58.784,8253175,2886909,7089117,6592621,2,2,2,2
2025-09-03 13:06:58.784,8252951,7080985,7105533,6609034,2,2,2,2
2025-09-03 13:06:58.785,8253138,7081097,7089009,6592763,2,2,2,2
2025-09-03 13:06:58.785,8253157,7081115,7105410,2406665,2,2,2,2
2025-09-03 13:06:58.785,8253176,7081194,2911124,6592793,2,2,2,2
2025-09-03 13:06:58.786,4058903,7081224,7105522,6609270,2,2,2,2
2025-09-03 13:06:58.786,4058986,7081242,7105540,6609285,2,2,2,2
2025-09-03 13:06:58.786,8253226,7081236,7089152,6592895,2,2,2,2
2025-09-03 13:06:58.786,8253296,7081238,7105540,2398594,2,2,2,2
2025-09-03 13:06:58.787,8253309,7081313,2903056,6592977,2,2,2,2
2025-09-03 13:06:58.787,8253319,7081323,2903065,6592987,2,2,2,2
2025-09-03 13:06:58.787,8253332,2887030,7105572,4495847,2,2,2,2
2025-09-03 13:06:58.787,4050926,7081423,5008509,6609152,2,2,2,2
2025-09-03 13:06:58.788,8253188,7081417,7105686,2406675,2,2,2,2
2025-09-03 13:06:58.788,8253282,7081221,7105778,2406759,2,2,2,2
2025-09-03 13:06:58.788,8253313,7081313,2903053,6592831,2,2,2,2
2025-09-03 13:06:58.788,8253408,2887035,7105576,4495765,2,2,2,2
2025-09-03 13:06:58.789,4050928,7081421,2911353,6592994,2,2,2,2
2025-09-03 13:06:58.789,4050943,7081432,2911364,6593002,2,2,2,2
2025-09-03 13:06:58.789,8253450,4984288,7089356,6593008,2,2,2,2
2025-09-03 13:06:58.789,8253538,7081460,7105763,2415109,2,2,2,2
2025-09-03 13:06:58.790,8253651,7081575,7089425,6593137,2,2,2,2
2025-09-03 13:06:58.790,8253667,7081593,7105891,2398850,2,2,2,2
2025-09-03 13:06:58.790,8253671,4984446,7089449,6593162,2,2,2,2
2025-09-03 13:06:58.791,4059369,7081535,7105896,6609548,2,2,2,2
2025-09-03 13:06:58.791,4059374,7081664,7105895,6609549,2,2,2,2
2025-09-03 13:06:58.791,8253688,7081603,7089513,6593171,2,2,2,2
2025-09-03 13:06:58.792,8253693,7081600,2903410,6593235,2,2,2,2
2025-09-03 13:06:58.792,8253447,7081607,2903417,6593236,2,2,2,2
2025-09-03 13:06:58.792,8253537,2887324,7106001,4496103,2,2,2,2
2025-09-03 13:06:58.792,4059244,7081701,5008796,6609615,2,2,2,2
2025-09-03 13:06:58.793,8253566,7081716,7106026,2407161,2,2,2,2
2025-09-03 13:06:58.793,8253591,7081481,7105792,2406923,2,2,2,2
2025-09-03 13:06:58.793,8253683,7081574,2903322,6593061,2,2,2,2
2025-09-03 13:06:58.793,8253710,2887301,7105848,4495999,2,2,2,2
2025-09-03 13:06:58.794,4059505,7081704,2911639,6593243,2,2,2,2
2025-09-03 13:06:58.794,4059520,7081713,2911712,6593252,2,2,2,2
2025-09-03 13:06:58.794,8253891,4984560,7089633,6593252,2,2,2,2
2025-09-03 13:06:58.794,8253855,7081738,7106040,2415358,2,2,2,2
2025-09-03 13:06:58.795,8253724,7081860,7089778,6593395,2,2,2,2
2025-09-03 13:06:58.795,8253798,7081868,7106171,2399098,2,2,2,2
2025-09-03 13:06:58.795,8253815,7081883,2911882,6593477,2,2,2,2
2025-09-03 13:06:58.796,4059531,7081966,7106272,6609815,2,2,2,2
2025-09-03 13:06:58.796,4059620,7081732,7106298,6609899,2,2,2,2
2025-09-03 13:06:58.796,8253936,7081745,7089674,6593527,2,2,2,2
2025-09-03 13:06:58.796,8253932,4984586,7089665,6593519,2,2,2,2
2025-09-03 13:06:58.797,8253900,7081737,2903805,6593513,2,2,2,2
2025-09-03 13:06:58.797,8253938,7081743,2903554,6593518,2,2,2,2
2025-09-03 13:06:58.797,8253928,2887431,7106298,4496352,2,2,2,2
2025-09-03 13:06:58.798,8253943,7081743,7106052,2407325,2,2,2,2
2025-09-03 13:06:58.798,8253955,7081783,7106066,2407396,2,2,2,2
2025-09-03 13:06:58.798,8253974,7081829,2903653,6593517,2,2,2,2
2025-09-03 13:06:58.798,8254011,7081824,2895464,6593518,2,2,2,2
2025-09-03 13:06:58.799,4059674,7081757,2911841,6593513,2,2,2,2
2025-09-03 13:06:58.799,4059746,7081763,2911845,6593518,2,2,2,2
2025-09-03 13:06:58.799,8253995,4984685,7089710,6593526,2,2,2,2
2025-09-03 13:06:58.799,8254072,2887543,7106108,6593282,2,2,2,2
2025-09-03 13:06:58.800,8254146,7081860,7089801,6593291,2,2,2,2
2025-09-03 13:06:58.800,8254154,7081869,7089804,6593295,2,2,2,2
2025-09-03 13:06:58.800,8254178,7081928,7106276,2407199,2,2,2,2
2025-09-03 13:06:58.801,4059899,7081982,7106297,6609784,2,2,2,2
2025-09-03 13:06:58.801,4059668,7082004,7106323,6609808,2,2,2,2
2025-09-03 13:06:58.801,8253993,7082083,7090020,6593432,2,2,2,2
2025-09-03 13:06:58.801,8254014,4984943,7090039,6593513,2,2,2,2
2025-09-03 13:06:58.802,8254129,7082119,2903949,6593530,2,2,2,2
2025-09-03 13:06:58.802,8254157,7082208,2904038,6593553,2,2,2,2
2025-09-03 13:06:58.802,8254213,2896119,7106555,4496484,2,2,2,2
2025-09-03 13:06:58.803,8254235,7081985,7106316,2407539,2,2,2,2
2025-09-03 13:06:58.803,8254306,7081997,7106323,2407545,2,2,2,2
2025-09-03 13:06:58.803,8254239,7081997,2903828,6593590,2,2,2,2
2025-09-03 13:06:58.803,8254284,7082007,2895716,6593664,2,2,2,2
2025-09-03 13:06:58.804,4060028,7082019,2912109,6593738,2,2,2,2
2025-09-03 13:06:58.804,4060037,7082023,2912115,6610127,2,2,2,2
2025-09-03 13:06:58.804,8254403,4984862,7089965,6593665,2,2,2,2
2025-09-03 13:06:58.804,8254346,2887778,7106352,6593666,2,2,2,2
2025-09-03 13:06:58.805,8254446,7082117,7090069,6593694,2,2,2,2
2025-09-03 13:06:58.805,8254228,7082226,7106555,2407435,2,2,2,2
2025-09-03 13:06:58.806,4060006,7082245,7106573,6609948,2,2,2,2
2025-09-03 13:06:58.806,4060019,7082250,7106582,6610018,2,2,2,2
2025-09-03 13:06:58.806,4060038,7082274,5009516,6610040,2,2,2,2
2025-09-03 13:06:58.806,8254427,4985204,7090303,6593673,2,2,2,2
2025-09-03 13:06:58.807,8254455,7082378,2912407,6593758,2,2,2,2
2025-09-03 13:06:58.807,8254482,7082464,2912494,6593776,2,2,2,2
2025-09-03 13:06:58.807,8254520,7082469,2896115,6593782,2,2,2,2
2025-09-03 13:06:58.808,8254484,7082434,7106807,2407665,2,2,2,2
2025-09-03 13:06:58.808,8254490,7082432,7106808,2407663,2,2,2,2
2025-09-03 13:06:58.808,8254567,7082444,7106562,2415867,2,2,2,2
2025-09-03 13:06:58.808,8254593,7082242,2895896,6593811,2,2,2,2
2025-09-03 13:06:58.809,4060308,7082263,2912365,6610213,2,2,2,2
2025-09-03 13:06:58.809,4060386,7082274,5009530,6610217,2,2,2,2
2025-09-03 13:06:58.809,8254700,7082349,2912387,6593839,2,2,2,2
2025-09-03 13:06:58.809,8254708,2888050,7106760,6593906,2,2,2,2
2025-09-03 13:06:58.810,8254717,7082362,7090320,6593908,2,2,2,2
2025-09-03 13:06:58.810,8254474,7082370,7090333,6593916,2,2,2,2
2025-09-03 13:06:58.810,8254490,4985230,7090381,6593929,2,2,2,2
2025-09-03 13:06:58.810,8254576,7082433,7106818,2407834,2,2,2,2
2025-09-03 13:06:58.811,4060280,7082466,7106817,6610334,2,2,2,2
2025-09-03 13:06:58.811,4060288,7082473,7106821,6610401,2,2,2,2
2025-09-03 13:06:58.811,4060304,7082489,5009683,6610381,2,2,2,2
2025-09-03 13:06:58.811,8254683,4985348,7090494,6594037,2,2,2,2
2025-09-03 13:06:58.812,8254694,7082507,2912616,6594046,2,2,2,2
2025-09-03 13:06:58.812,8254721,7082594,2912636,6593811,2,2,2,2
2025-09-03 13:06:58.812,8254789,7082625,2896352,6593904,2,2,2,2
2025-09-03 13:06:58.813,8254924,4985570,7090436,6593933,2,2,2,2
2025-09-03 13:06:58.813,8254942,4985584,7090457,6593948,2,2,2,2
2025-09-03 13:06:58.813,8254963,2888198,7106866,6594031,2,2,2,2
2025-09-03 13:06:58.813,4060433,7082527,7106959,6610440,2,2,2,2
2025-09-03 13:06:58.814,4060437,7082532,2912660,6610437,2,2,2,2
2025-09-03 13:06:58.814,8254747,7082569,7106971,2407941,2,2,2,2
2025-09-03 13:06:58.814,8254838,7082624,2912757,6594078,2,2,2,2
2025-09-03 13:06:58.815,8254919,7082644,7090697,6594163,2,2,2,2
2025-09-03 13:06:58.815,8254951,7082742,7090790,6594197,2,2,2,2
2025-09-03 13:06:58.815,8254988,4985623,7090821,6594293,2,2,2,2
2025-09-03 13:06:58.815,8255007,7082822,7107218,2407937,2,2,2,2
2025-09-03 13:06:58.816,8255082,2896752,7107288,4496901,2,2,2,2
2025-09-03 13:06:58.816,8255098,2896766,7107300,4496913,2,2,2,2
2025-09-03 13:06:58.816,4060905,7082990,2912788,6594099,2,2,2,2
2025-09-03 13:06:58.817,8254981,7082756,2912880,6594250,2,2,2,2
2025-09-03 13:06:58.817,8255077,7082786,7107216,2416366,2,2,2,2
2025-09-03 13:06:58.817,4060807,7082944,7107312,6610699,2,2,2,2
2025-09-03 13:06:58.817,8255199,7082896,7090946,6594330,2,2,2,2
2025-09-03 13:06:58.818,8255219,4985828,7090967,6594410,2,2,2,2
2025-09-03 13:06:58.818,8255229,4985833,7090975,6594413,2,2,2,2
2025-09-03 13:06:58.818,8255241,2888691,7107369,6594418,2,2,2,2
2025-09-03 13:06:58.818,4061030,7083020,7107462,6610828,2,2,2,2
2025-09-03 13:06:58.819,8255294,4985954,7091140,6594533,2,2,2,2
2025-09-03 13:06:58.819,8255442,4985973,7091194,6594549,2,2,2,2
2025-09-03 13:06:58.819,8255457,7083141,7107341,2408202,2,2,2,2
2025-09-03 13:06:58.819,8255433,7083155,2913049,6594322,2,2,2,2
2025-09-03 13:06:58.820,4061172,7083231,5010275,6610749,2,2,2,2
2025-09-03 13:06:58.820,4061171,7083229,5010274,6610746,2,2,2,2
2025-09-03 13:06:58.820,4061168,7083222,2913120,6594325,2,2,2,2
2025-09-03 13:06:58.820,8255482,4986014,7090984,6594331,2,2,2,2
2025-09-03 13:06:58.821,8255240,7083242,2896757,6594407,2,2,2,2
2025-09-03 13:06:58.821,8255289,7083255,2896770,6594414,2,2,2,2
2025-09-03 13:06:58.821,4061077,7083057,2913266,6594530,2,2,2,2
2025-09-03 13:06:58.822,8255474,2888843,7107595,6594555,2,2,2,2
2025-09-03 13:06:58.822,8255494,7083199,7107611,2416653,2,2,2,2
2025-09-03 13:06:58.822,4061204,7083245,7107691,6610967,2,2,2,2
2025-09-03 13:06:58.822,8255525,7083260,7091329,6611046,2,2,2,2
2025-09-03 13:06:58.823,8255605,7083271,2913424,6610994,2,2,2,2
2025-09-03 13:06:58.823,8255611,7083272,7107728,2408562,2,2,2,2
2025-09-03 13:06:58.823,8255613,7083276,2913423,6610995,2,2,2,2
2025-09-03 13:06:58.823,8255623,2897174,7107802,4513912,2,2,2,2
2025-09-03 13:06:58.824,8255716,4986226,7091442,6611089,2,2,2,2
2025-09-03 13:06:58.824,8255740,4986255,7091205,6611173,2,2,2,2
2025-09-03 13:06:58.824,8255507,7083458,7107612,2408692,2,2,2,2
2025-09-03 13:06:58.824,8255564,7083511,2913394,6610949,2,2,2,2
2025-09-03 13:06:58.825,4061331,7083277,2913432,6610977,2,2,2,2
2025-09-03 13:06:58.825,8255713,4986138,7091430,6611052,2,2,2,2
2025-09-03 13:06:58.826,8255731,7083369,2897141,6611067,2,2,2,2
2025-09-03 13:06:58.826,4061450,7083323,7107849,6611085,2,2,2,2
2025-09-03 13:06:58.826,8255775,7083413,7091553,6611170,2,2,2,2
2025-09-03 13:06:58.826,4061538,7083484,2913641,6611177,2,2,2,2
2025-09-03 13:06:58.827,8255848,2889190,7107888,6611179,2,2,2,2
2025-09-03 13:06:58.827,8255860,2889205,7107900,6611189,2,2,2,2
2025-09-03 13:06:58.827,4061565,7083516,7107965,6611192,2,2,2,2
2025-09-03 13:06:58.827,8255941,7083519,7091582,6611192,2,2,2,2
2025-09-03 13:06:58.828,8255903,7083576,7107990,2408719,2,2,2,2
2025-09-03 13:06:58.828,8255756,7083650,7107841,2408822,2,2,2,2
2025-09-03 13:06:58.828,8255819,7083745,2913633,6611413,2,2,2,2
2025-09-03 13:06:58.828,8255882,2897655,7107900,4514288,2,2,2,2
2025-09-03 13:06:58.829,8255977,4986387,7091642,6611211,2,2,2,2
2025-09-03 13:06:58.829,8256006,4986479,7091704,6611300,2,2,2,2
2025-09-03 13:06:58.829,8256025,7083647,7108107,2408821,2,2,2,2
2025-09-03 13:06:58.829,8256107,7083662,2913818,6611396,2,2,2,2
2025-09-03 13:06:58.830,4061846,7083763,2913927,6611428,2,2,2,2
2025-09-03 13:06:58.830,8256231,4986624,7091925,6611436,2,2,2,2
2025-09-03 13:06:58.831,8256245,7083785,2897564,6611439,2,2,2,2
2025-09-03 13:06:58.831,4061698,7083797,7108327,6611444,2,2,2,2
2025-09-03 13:06:58.831,8256017,7083807,7091954,6611452,2,2,2,2
2025-09-03 13:06:58.832,8256116,2889599,7108120,6611483,2,2,2,2
2025-09-03 13:06:58.832,8256134,2889611,7108134,6611562,2,2,2,2
2025-09-03 13:06:58.832,4061842,7083993,7108210,6611572,2,2,2,2
2025-09-03 13:06:58.832,8256232,7084013,7091843,6611595,2,2,2,2
2025-09-03 13:06:58.833,8256227,7083974,7108222,2409091,2,2,2,2
2025-09-03 13:06:58.833,8256153,7083965,7108214,2409079,2,2,2,2
2025-09-03 13:06:58.833,8256187,7083935,2913916,6611510,2,2,2,2
2025-09-03 13:06:58.833,8256142,2897806,7108142,4514409,2,2,2,2
2025-09-03 13:06:58.834,8256199,4986759,7091783,6611553,2,2,2,2
2025-09-03 13:06:58.834,4061834,7083981,2913899,6611494,2,2,2,2
2025-09-03 13:06:58.834,8256215,4986777,7091769,6611566,2,2,2,2
2025-09-03 13:06:58.834,8256229,7084007,7108228,2417267,2,2,2,2
2025-09-03 13:06:58.835,4061968,7083782,2914025,6611664,2,2,2,2
2025-09-03 13:06:58.835,8256279,4986642,7091951,6611606,2,2,2,2
2025-09-03 13:06:58.836,4062055,7083808,7108350,6611647,2,2,2,2
2025-09-03 13:06:58.836,4062077,7083827,7108371,6611693,2,2,2,2
2025-09-03 13:06:58.836,8256470,7083907,7092074,6611457,2,2,2,2
2025-09-03 13:06:58.837,8256505,2889706,7108564,6611558,2,2,2,2
2025-09-03 13:06:58.837,8256262,2889714,7108575,6611566,2,2,2,2
2025-09-03 13:06:58.837,4061963,7084023,7108576,6611567,2,2,2,2
2025-09-03 13:06:58.837,4061967,7084022,5011425,6611568,2,2,2,2
2025-09-03 13:06:58.838,8256275,7084019,7108579,2409070,2,2,2,2
2025-09-03 13:06:58.838,8256358,7084035,7108596,2409084,2,2,2,2
2025-09-03 13:06:58.838,8256387,7084128,2914066,6611667,2,2,2,2
2025-09-03 13:06:58.838,8256482,2898052,7108403,4514543,2,2,2,2
2025-09-03 13:06:58.839,8256503,7084187,7092105,6611716,2,2,2,2
2025-09-03 13:06:58.839,4062221,7084271,2914272,6611733,2,2,2,2
2025-09-03 13:06:58.839,8256537,4987131,7092200,6611743,2,2,2,2
2025-09-03 13:06:58.839,8256613,7084036,7108594,2417510,2,2,2,2
2025-09-03 13:06:58.840,4062455,7084226,5011573,6611943,2,2,2,2
2025-09-03 13:06:58.840,8256762,7084168,2914423,6611948,2,2,2,2
2025-09-03 13:06:58.841,4062210,7084239,7108735,6611959,2,2,2,2
2025-09-03 13:06:58.841,4062217,7084243,7108739,6611961,2,2,2,2
2025-09-03 13:06:58.841,8256521,7084176,7092356,6611959,2,2,2,2
2025-09-03 13:06:58.842,8256624,2889975,7108844,6611737,2,2,2,2
2025-09-03 13:06:58.842,8256652,7084307,2914312,6611763,2,2,2,2
2025-09-03 13:06:58.842,8256647,2898189,7108613,4514667,2,2,2,2
2025-09-03 13:06:58.842,4062342,7084300,5011457,6611780,2,2,2,2
2025-09-03 13:06:58.843,8256651,7084336,7108617,2409317,2,2,2,2
2025-09-03 13:06:58.843,8256664,7084351,7108630,2409324,2,2,2,2
2025-09-03 13:06:58.843,8256750,7084406,2914414,6611906,2,2,2,2
2025-09-03 13:06:58.843,8256782,7084437,2898058,6611868,2,2,2,2
2025-09-03 13:06:58.844,4062489,7084508,2914452,6611938,2,2,2,2
2025-09-03 13:06:58.844,4062571,7084516,2914528,6611947,2,2,2,2
2025-09-03 13:06:58.844,8256965,4987384,7092464,6611966,2,2,2,2
2025-09-03 13:06:58.844,8256927,2889998,7108871,6611985,2,2,2,2
2025-09-03 13:06:58.845,4062577,7084511,5011869,6612192,2,2,2,2
2025-09-03 13:06:58.845,4062604,7084536,2914809,6612213,2,2,2,2
2025-09-03 13:06:58.846,4062696,7084562,7108885,6611983,2,2,2,2
2025-09-03 13:06:58.846,4062721,7084583,7108973,6612070,2,2,2,2
2025-09-03 13:06:58.846,8257044,7084664,7092611,6612083,2,2,2,2
2025-09-03 13:06:58.846,8257056,4987524,7092620,6612087,2,2,2,2
2025-09-03 13:06:58.847,8257083,7084670,2914695,6612016,2,2,2,2
2025-09-03 13:06:58.847,8257094,7084676,2914704,6612022,2,2,2,2
2025-09-03 13:06:58.847,8257143,2898577,7109084,4514947,2,2,2,2
2025-09-03 13:06:58.848,8257173,7084745,7109110,2409619,2,2,2,2
2025-09-03 13:06:58.848,8257253,7084793,7109126,2409630,2,2,2,2
2025-09-03 13:06:58.848,8257267,7084545,2914833,6612199,2,2,2,2
2025-09-03 13:06:58.848,8257026,7084556,2898459,6612207,2,2,2,2
2025-09-03 13:06:58.849,4062743,7084579,2914926,6612229,2,2,2,2
2025-09-03 13:06:58.849,4062824,7084596,5012094,6612243,2,2,2,2
2025-09-03 13:06:58.849,8257070,4987514,7092932,6612250,2,2,2,2
2025-09-03 13:06:58.849,8257163,2890391,7109342,6612338,2,2,2,2
2025-09-03 13:06:58.850,8257261,7084791,7092987,6612361,2,2,2,2
2025-09-03 13:06:58.850,8257285,7084808,7109140,2409879,2,2,2,2
2025-09-03 13:06:58.851,4062980,7084805,7109134,6612371,2,2,2,2
2025-09-03 13:06:58.851,4062982,7084799,7109128,6612366,2,2,2,2
2025-09-03 13:06:58.851,4062982,7084794,5011974,6612363,2,2,2,2
2025-09-03 13:06:58.851,8257303,4987659,7092790,6612378,2,2,2,2
2025-09-03 13:06:58.852,8257349,7084821,2914915,6612456,2,2,2,2
2025-09-03 13:06:58.852,8257398,7084901,2914934,6612467,2,2,2,2
2025-09-03 13:06:58.852,8257456,7084927,2898574,6612232,2,2,2,2
2025-09-03 13:06:58.853,8257284,7085040,7109373,2409838,2,2,2,2
2025-09-03 13:06:58.853,8257297,4987649,7093005,6612345,2,2,2,2
2025-09-03 13:06:58.853,8257381,7084854,7109473,2418057,2,2,2,2
2025-09-03 13:06:58.853,4063106,7084846,7109501,6612416,2,2,2,2
2025-09-03 13:06:58.854,4063131,7085000,2915221,6612475,2,2,2,2
2025-09-03 13:06:58.854,4063222,7085028,5012466,6612505,2,2,2,2
2025-09-03 13:06:58.854,4063245,7085050,2915082,6612524,2,2,2,2
2025-09-03 13:06:58.854,8257549,2890746,7109389,6612589,2,2,2,2
2025-09-03 13:06:58.855,8257565,7085058,7093017,6612601,2,2,2,2
2025-09-03 13:06:58.855,8257583,7085068,7093095,6612614,2,2,2,2
2025-09-03 13:06:58.855,8257586,4987918,7093062,6612616,2,2,2,2
2025-09-03 13:06:58.855,8257638,7085057,7109396,2410108,2,2,2,2
2025-09-03 13:06:58.856,4063331,7085050,7109394,6612596,2,2,2,2
2025-09-03 13:06:58.856,8257633,2898936,7109396,4515440,2,2,2,2
2025-09-03 13:06:58.856,4063332,7085057,5012251,6612595,2,2,2,2
2025-09-03 13:06:58.856,8257586,7085072,7093069,6612606,2,2,2,2
2025-09-03 13:06:58.857,8257684,7085162,2915209,6612693,2,2,2,2
2025-09-03 13:06:58.857,8257779,7085186,2915302,6612721,2,2,2,2
2025-09-03 13:06:58.857,8257536,7085199,2898933,6612734,2,2,2,2
2025-09-03 13:06:58.858,8257564,4988138,7093263,6612503,2,2,2,2
2025-09-03 13:06:58.858,8257571,4988144,7093267,6612507,2,2,2,2
2025-09-03 13:06:58.858,8257640,2890995,7109655,6612507,2,2,2,2
2025-09-03 13:06:58.858,4063350,7085310,7109731,6612576,2,2,2,2
2025-09-03 13:06:58.859,4063361,7085066,2915442,6612522,2,2,2,2
2025-09-03 13:06:58.859,4063380,7085082,5012608,6612537,2,2,2,2
2025-09-03 13:06:58.859,4063471,7085170,2915479,6612689,2,2,2,2
2025-09-03 13:06:58.859,8257799,2890889,7109868,6612711,2,2,2,2
2025-09-03 13:06:58.860,8257820,7085281,7093501,6612725,2,2,2,2
2025-09-03 13:06:58.860,8257835,7085293,7093256,6612733,2,2,2,2
2025-09-03 13:06:58.860,8257852,4988159,7093304,6612741,2,2,2,2
2025-09-03 13:06:58.860,8257923,7085315,7109662,2410250,2,2,2,2
2025-09-03 13:06:58.861,8257942,2899219,7109680,4515610,2,2,2,2
2025-09-03 13:06:58.861,8258037,7085424,2899082,6612853,2,2,2,2
2025-09-03 13:06:58.861,4063516,7085519,2915566,6612949,2,2,2,2
2025-09-03 13:06:58.862,8257915,7085551,7109901,2418679,2,2,2,2
2025-09-03 13:06:58.862,8257945,7085325,7109997,2418452,2,2,2,2
2025-09-03 13:06:58.862,8257995,7085343,2899325,6612837,2,2,2,2
2025-09-03 13:06:58.863,8258056,7085426,2915736,6612790,2,2,2,2
2025-09-03 13:06:58.863,8258077,4988290,7093738,6612867,2,2,2,2
2025-09-03 13:06:58.863,8258145,2891138,7110119,6612864,2,2,2,2
2025-09-03 13:06:58.863,4063847,7085504,7110123,6612861,2,2,2,2
2025-09-03 13:06:58.864,8258288,7085559,7110000,2410490,2,2,2,2
2025-09-03 13:06:58.864,8258053,2891276,7110084,6613001,2,2,2,2
2025-09-03 13:06:58.865,4063840,7085607,5012890,6613058,2,2,2,2
2025-09-03 13:06:58.865,4063865,7085763,5012980,6613109,2,2,2,2
2025-09-03 13:06:58.865,8258259,4988568,7093771,6613130,2,2,2,2
2025-09-03 13:06:58.865,8258276,7085769,7110168,2410647,2,2,2,2
2025-09-03 13:06:58.866,8258238,7085792,2899476,6613135,2,2,2,2
2025-09-03 13:06:58.866,8258238,7085723,2899475,6613131,2,2,2,2
2025-09-03 13:06:58.866,4063999,7085816,2915951,6613219,2,2,2,2
2025-09-03 13:06:58.867,8258319,7085577,7110270,2418928,2,2,2,2
2025-09-03 13:06:58.867,8258400,2891363,7110354,6612996,2,2,2,2
2025-09-03 13:06:58.867,4064120,7085625,7110379,6613012,2,2,2,2
2025-09-03 13:06:58.867,8258505,7085707,7093760,6613023,2,2,2,2
2025-09-03 13:06:58.868,8258534,7085792,2915866,6613047,2,2,2,2
2025-09-03 13:06:58.868,4064239,7085802,2915937,6613184,2,2,2,2
2025-09-03 13:06:58.868,8258546,2891498,7110179,6613122,2,2,2,2
2025-09-03 13:06:58.868,4064010,7085823,7110269,6613146,2,2,2,2
2025-09-03 13:06:58.869,8258338,4988689,7093902,6613224,2,2,2,2
2025-09-03 13:06:58.869,8258342,4988694,7093943,6613233,2,2,2,2
2025-09-03 13:06:58.869,8258415,7085887,7110368,2410745,2,2,2,2
2025-09-03 13:06:58.869,8258435,7085935,2916084,6613254,2,2,2,2
2025-09-03 13:06:58.870,4064145,7086018,5013254,6613261,2,2,2,2
2025-09-03 13:06:58.870,4064258,7086056,2916204,6613297,2,2,2,2
2025-09-03 13:06:58.870,8258600,4988672,7094216,6613389,2,2,2,2
2025-09-03 13:06:58.871,8258673,7085832,2899855,6613395,2,2,2,2
2025-09-03 13:06:58.871,8258686,7085844,2899863,6613404,2,2,2,2
2025-09-03 13:06:58.871,4064486,7085873,2916341,6613500,2,2,2,2
2025-09-03 13:06:58.872,8258806,2891646,7110655,6613254,2,2,2,2
2025-09-03 13:06:58.872,8258814,2891649,7110402,6613258,2,2,2,2
2025-09-03 13:06:58.872,4064497,7085871,7110648,6613497,2,2,2,2
2025-09-03 13:06:58.872,8258802,7085933,7094265,6613495,2,2,2,2
2025-09-03 13:06:58.873,8258794,7085900,7110646,2410996,2,2,2,2
2025-09-03 13:06:58.873,8258796,7085936,7110650,2410998,2,2,2,2
2025-09-03 13:06:58.873,8258803,7085944,2916098,6613501,2,2,2,2
2025-09-03 13:06:58.873,8258810,2899839,7110411,4516100,2,2,2,2
2025-09-03 13:06:58.874,8258579,4988824,7094082,6613273,2,2,2,2
2025-09-03 13:06:58.874,8258620,4988927,7094152,6613372,2,2,2,2
2025-09-03 13:06:58.874,8258797,7086152,7110646,2410984,2,2,2,2
2025-09-03 13:06:58.874,8258819,7102593,2916371,6613501,2,2,2,2
2025-09-03 13:06:58.875,4064524,7102667,2916450,6613505,2,2,2,2
2025-09-03 13:06:58.875,8258835,5005455,7127085,6613509,2,2,2,2
2025-09-03 13:06:58.876,4064612,7102686,7110782,6613553,2,2,2,2
2025-09-03 13:06:58.876,4064622,7102694,7110789,6613558,2,2,2,2
2025-09-03 13:06:58.876,8258879,7102710,7127190,6613604,2,2,2,2
2025-09-03 13:06:58.877,8259058,2908262,7110658,6613646,2,2,2,2
2025-09-03 13:06:58.877,8258819,2908277,7110670,6613656,2,2,2,2
2025-09-03 13:06:58.877,4064518,7102520,7110675,6613660,2,2,2,2
2025-09-03 13:06:58.877,8258838,7102596,7127136,6613737,2,2,2,2
2025-09-03 13:06:58.878,8258833,7086204,7110686,2411237,2,2,2,2
2025-09-03 13:06:58.878,8258843,7086212,7110758,2411243,2,2,2,2
2025-09-03 13:06:58.878,8258882,7102600,2916456,6613740,2,2,2,2
2025-09-03 13:06:58.878,8258916,2900104,7110694,4516583,2,2,2,2
2025-09-03 13:06:58.879,4064609,7102659,2916449,6613727,2,2,2,2
2025-09-03 13:06:58.879,4064615,7102660,2916450,6613726,2,2,2,2
2025-09-03 13:06:58.879,8258848,5005439,7127067,6613653,2,2,2,2
2025-09-03 13:06:58.879,8258919,7086280,7110754,2419356,2,2,2,2
2025-09-03 13:06:58.880,8259029,7102708,7127184,6613506,2,2,2,2
2025-09-03 13:06:58.880,8258969,7086321,7110798,2419455,2,2,2,2
2025-09-03 13:06:58.880,8259042,7102713,2916506,6613512,2,2,2,2
2025-09-03 13:06:58.881,4064751,7102723,7110883,6613516,2,2,2,2
2025-09-03 13:06:58.881,4064764,7102733,7110896,6613530,2,2,2,2
2025-09-03 13:06:58.881,8259085,7102748,7127297,6613610,2,2,2,2
2025-09-03 13:06:58.882,8259151,7102842,2916635,6613699,2,2,2,2
2025-09-03 13:06:58.882,8259196,7102851,2916705,6613705,2,2,2,2
2025-09-03 13:06:58.882,8259210,2900365,7110954,4516497,2,2,2,2
2025-09-03 13:06:58.882,4064924,7102938,5013880,6613695,2,2,2,2
2025-09-03 13:06:58.883,8259310,7086540,7111052,2411249,2,2,2,2
2025-09-03 13:06:58.883,8259320,2908661,7127509,6613749,2,2,2,2
2025-09-03 13:06:58.883,8259072,7086587,7111060,6613749,2,2,2,2
2025-09-03 13:06:58.883,8259073,7102970,2933137,6613746,2,2,2,2
2025-09-03 13:06:58.884,4064778,7102973,2916757,6613747,2,2,2,2
2025-09-03 13:06:58.884,4064872,7102741,2916850,6613773,2,2,2,2
2025-09-03 13:06:58.884,8259278,5005685,7127322,6613870,2,2,2,2
2025-09-03 13:06:58.884,8259311,2908560,7110965,6613897,2,2,2,2
2025-09-03 13:06:58.885,8259351,7102967,7127452,6613998,2,2,2,2
2025-09-03 13:06:58.885,8259389,7102998,7127556,6613776,2,2,2,2
2025-09-03 13:06:58.885,8259474,7103073,2916878,6613779,2,2,2,2
2025-09-03 13:06:58.886,4065181,7103017,7111191,6613788,2,2,2,2
2025-09-03 13:06:58.886,8259579,2900615,7111221,4516726,2,2,2,2
2025-09-03 13:06:58.886,4065042,7103201,5014154,6613899,2,2,2,2
2025-09-03 13:06:58.886,8259361,5006061,7127737,6613911,2,2,2,2
2025-09-03 13:06:58.887,8259389,7103210,2917018,6613972,2,2,2,2
2025-09-03 13:06:58.887,8259384,7103207,2917019,6613966,2,2,2,2
2025-09-03 13:06:58.887,8259424,2900719,7111397,4516752,2,2,2,2
2025-09-03 13:06:58.888,8259524,2908702,7127565,6614002,2,2,2,2
2025-09-03 13:06:58.888,8259534,5005924,7127573,6614011,2,2,2,2
2025-09-03 13:06:58.888,8259552,7086652,7111275,2419721,2,2,2,2
2025-09-03 13:06:58.888,8259576,7103125,2933377,6614043,2,2,2,2
2025-09-03 13:06:58.889,4065281,7103200,2917004,6614051,2,2,2,2
2025-09-03 13:06:58.889,4065287,7103207,2917013,6614051,2,2,2,2
2025-09-03 13:06:58.889,8259614,5006071,7127783,6614132,2,2,2,2
2025-09-03 13:06:58.889,8259708,2908946,7111424,6614155,2,2,2,2
2025-09-03 13:06:58.890,8259796,7103332,7127827,6614172,2,2,2,2
2025-09-03 13:06:58.890,8259806,7103334,7127835,6614240,2,2,2,2
2025-09-03 13:06:58.890,8259819,7086961,7111529,2411753,2,2,2,2
2025-09-03 13:06:58.891,4065527,7103288,7111537,6614251,2,2,2,2
2025-09-03 13:06:58.891,4065283,7103429,7111550,6614263,2,2,2,2
2025-09-03 13:06:58.891,8259603,7103377,7127948,6614019,2,2,2,2
2025-09-03 13:06:58.891,8259616,5006305,7127993,6614032,2,2,2,2
2025-09-03 13:06:58.892,8259715,7103232,2917371,6614067,2,2,2,2
2025-09-03 13:06:58.892,8259777,7103261,2917147,6614226,2,2,2,2
2025-09-03 13:06:58.892,8259835,2900853,7111474,4517096,2,2,2,2
2025-09-03 13:06:58.893,8259943,7087032,7111574,2411786,2,2,2,2
2025-09-03 13:06:58.893,8259889,5006237,7128031,6614290,2,2,2,2
2025-09-03 13:06:58.893,8259966,7087080,7111660,2419994,2,2,2,2
2025-09-03 13:06:58.893,8259974,7103469,2933747,6614371,2,2,2,2
2025-09-03 13:06:58.894,4065677,7103477,2917370,6614311,2,2,2,2
2025-09-03 13:06:58.894,4065691,7103489,2917382,6614322,2,2,2,2
2025-09-03 13:06:58.894,8260079,5006357,7128087,6614403,2,2,2,2
2025-09-03 13:06:58.894,8260076,2909203,7111700,6614397,2,2,2,2
2025-09-03 13:06:58.895,8260085,7103511,7128089,6614394,2,2,2,2
2025-09-03 13:06:58.895,8259951,7087243,7111820,2412002,2,2,2,2
2025-09-03 13:06:58.896,4065662,7103701,7111833,6614506,2,2,2,2
2025-09-03 13:06:58.896,4065678,7103709,7111906,6614516,2,2,2,2
2025-09-03 13:06:58.896,4065763,7103731,5014777,6614278,2,2,2,2
2025-09-03 13:06:58.896,8260096,5006350,7128117,6614370,2,2,2,2
2025-09-03 13:06:58.897,8260111,7103517,2917476,6614319,2,2,2,2
2025-09-03 13:06:58.897,8260122,7103596,2917491,6614330,2,2,2,2
2025-09-03 13:06:58.897,8260151,7103593,2933875,6614396,2,2,2,2
2025-09-03 13:06:58.898,8260230,7087246,7111836,2411935,2,2,2,2
2025-09-03 13:06:58.898,8260324,7087306,7111929,2412022,2,2,2,2
2025-09-03 13:06:58.898,8260328,7087307,7111932,2420211,2,2,2,2
2025-09-03 13:06:58.898,8260097,7103745,2934037,6614538,2,2,2,2
2025-09-03 13:06:58.899,4065808,7103760,2917728,6614550,2,2,2,2
2025-09-03 13:06:58.899,4065822,7103775,5014895,6614563,2,2,2,2
2025-09-03 13:06:58.899,4065815,7103767,2917736,6614556,2,2,2,2
2025-09-03 13:06:58.899,8260118,2909458,7111970,6614552,2,2,2,2
2025-09-03 13:06:58.900,8260124,2901274,7111979,2420255,2,2,2,2
2025-09-03 13:06:58.900,8260147,7103856,7128453,6614648,2,2,2,2
2025-09-03 13:06:58.900,4066032,7103982,2917640,6614775,2,2,2,2
2025-09-03 13:06:58.901,4066057,7103749,7112033,6614542,2,2,2,2
2025-09-03 13:06:58.901,4066144,7103766,7112053,6614559,2,2,2,2
2025-09-03 13:06:58.901,4066156,7103773,5014910,6614594,2,2,2,2
2025-09-03 13:06:58.901,8260392,7103772,7128441,6614554,2,2,2,2
2025-09-03 13:06:58.902,8260469,7103847,2917760,6614561,2,2,2,2
2025-09-03 13:06:58.902,8260483,7087406,7112074,2420327,2,2,2,2
2025-09-03 13:06:58.902,8260529,7103864,2934165,6614635,2,2,2,2
2025-09-03 13:06:58.902,4066280,7103949,5015017,6614653,2,2,2,2
2025-09-03 13:06:58.903,8260354,7087561,7112192,2412179,2,2,2,2
2025-09-03 13:06:58.903,8260374,7087612,7112214,2412262,2,2,2,2
2025-09-03 13:06:58.903,8260459,7087631,7112299,2420465,2,2,2,2
2025-09-03 13:06:58.903,8260467,7104019,2934381,6614768,2,2,2,2
2025-09-03 13:06:58.904,4066177,7104027,5015157,6614775,2,2,2,2
2025-09-03 13:06:58.904,4066181,7104028,5015156,6614776,2,2,2,2
2025-09-03 13:06:58.904,4066198,7104108,2918015,6614792,2,2,2,2
2025-09-03 13:06:58.904,8260602,2909835,7112418,6614889,2,2,2,2
2025-09-03 13:06:58.905,8260608,7104150,7128810,6614896,2,2,2,2
2025-09-03 13:06:58.905,8260605,7104146,7128810,6614895,2,2,2,2
2025-09-03 13:06:58.905,4066330,7104238,2917895,6614989,2,2,2,2
2025-09-03 13:06:58.906,8260709,2901750,7112209,4517782,2,2,2,2
2025-09-03 13:06:58.906,8260725,2901511,7112228,4517859,2,2,2,2
2025-09-03 13:06:58.906,4066441,7104023,5015163,6615026,2,2,2,2
2025-09-03 13:06:58.906,8260835,7104104,7128752,6614790,2,2,2,2
2025-09-03 13:06:58.907,8260841,7104110,2918043,6614795,2,2,2,2
2025-09-03 13:06:58.907,8260852,7104119,2918114,6614804,2,2,2,2
2025-09-03 13:06:58.907,8260611,2909824,7112425,4517660,2,2,2,2
2025-09-03 13:06:58.907,4066314,7104196,5015281,6614843,2,2,2,2
2025-09-03 13:06:58.908,8260640,5007004,7128834,6614893,2,2,2,2
2025-09-03 13:06:58.908,8260663,5007093,7128859,6614914,2,2,2,2
2025-09-03 13:06:58.908,8260761,7087931,7112573,2420708,2,2,2,2
2025-09-03 13:06:58.908,8260815,7104366,2918288,6615029,2,2,2,2
2025-09-03 13:06:58.909,4066552,7104305,5015446,6615030,2,2,2,2
2025-09-03 13:06:58.909,4066549,7104376,2918295,6615027,2,2,2,2
2025-09-03 13:06:58.909,8260854,2910074,7112663,6615024,2,2,2,2
2025-09-03 13:06:58.910,8260872,7104394,7129063,6615037,2,2,2,2
2025-09-03 13:06:58.910,8260889,7104408,7129080,6615052,2,2,2,2
2025-09-03 13:06:58.910,4066677,7104488,2918156,6615075,2,2,2,2
2025-09-03 13:06:58.911,8260999,2902006,7112477,4518000,2,2,2,2
2025-09-03 13:06:58.911,8261022,2909962,7112496,4518012,2,2,2,2
2025-09-03 13:06:58.911,4066794,7104273,5015417,6615166,2,2,2,2
2025-09-03 13:06:58.911,8261103,7104278,7128958,6615165,2,2,2,2
2025-09-03 13:06:58.912,8261106,7104279,2918273,6615103,2,2,2,2
2025-09-03 13:06:58.912,8261115,7087939,7112591,2420875,2,2,2,2
2025-09-03 13:06:58.912,8260922,7104383,2918378,6615271,2,2,2,2
2025-09-03 13:06:58.912,4066683,7104473,7112711,6615292,2,2,2,2
2025-09-03 13:06:58.913,8261075,5007344,7129115,6615058,2,2,2,2
2025-09-03 13:06:58.913,8261104,5007371,7129208,6615153,2,2,2,2
2025-09-03 13:06:58.913,8261131,7088191,7112847,2420872,2,2,2,2
2025-09-03 13:06:58.913,8261188,7104627,2918629,6615259,2,2,2,2
2025-09-03 13:06:58.914,4066970,7104667,2918424,6615298,2,2,2,2
2025-09-03 13:06:58.914,8261353,2910440,7112747,6615313,2,2,2,2
2025-09-03 13:06:58.915,8261360,7104752,7129204,6615322,2,2,2,2
2025-09-03 13:06:58.915,8261361,7104750,7129202,6615322,2,2,2,2
2025-09-03 13:06:58.915,4067064,7104751,2918510,6615312,2,2,2,2
2025-09-03 13:06:58.916,8261122,2910459,7112759,4518159,2,2,2,2
2025-09-03 13:06:58.916,8261135,2910218,7112901,4518168,2,2,2,2
2025-09-03 13:06:58.916,4066919,7104542,5015708,6615370,2,2,2,2
2025-09-03 13:06:58.916,4066935,7104555,5015782,6615346,2,2,2,2
2025-09-03 13:06:58.917,8261251,7104630,2918637,6615352,2,2,2,2
2025-09-03 13:06:58.917,8261277,7104655,2918660,6615504,2,2,2,2
2025-09-03 13:06:58.917,8261367,2910441,7112992,4518380,2,2,2,2
2025-09-03 13:06:58.917,8261394,2902274,7113021,2420998,2,2,2,2
2025-09-03 13:06:58.918,8261418,5007639,7129554,6615325,2,2,2,2
2025-09-03 13:06:58.918,8261574,5007726,7129544,6615410,2,2,2,2
2025-09-03 13:06:58.918,8261529,7088512,7113209,2421120,2,2,2,2
2025-09-03 13:06:58.918,8261619,7104924,2918678,6615513,2,2,2,2
2025-09-03 13:06:58.919,4067076,7105005,5015908,6615527,2,2,2,2
2025-09-03 13:06:58.919,4067170,7104780,2918788,6615558,2,2,2,2
2025-09-03 13:06:58.919,8261431,2910492,7113178,6615574,2,2,2,2
2025-09-03 13:06:58.920,8261578,7104880,7129580,6615655,2,2,2,2
2025-09-03 13:06:58.920,8261580,7104888,7129591,6615662,2,2,2,2
2025-09-03 13:06:58.920,8261518,7088508,7113206,2421354,2,2,2,2
2025-09-03 13:06:58.921,8261529,2910593,7113213,4518507,2,2,2,2
2025-09-03 13:06:58.921,8261600,2910596,7113221,4518508,2,2,2,2
2025-09-03 13:06:58.921,4067314,7104980,7113239,6615675,2,2,2,2
2025-09-03 13:06:58.921,4075534,7105003,5016176,6615760,2,2,2,2
2025-09-03 13:06:58.922,8261739,7105031,2919054,6615788,2,2,2,2
2025-09-03 13:06:58.922,8261756,7088696,7113375,2421496,2,2,2,2
2025-09-03 13:06:58.922,8261774,7105128,2919144,6615552,2,2,2,2
2025-09-03 13:06:58.922,8261787,2902637,7113458,4518405,2,2,2,2
2025-09-03 13:06:58.923,8261874,5008002,7129608,6615574,2,2,2,2
2025-09-03 13:06:58.923,8261638,5008019,7129656,6615656,2,2,2,2
2025-09-03 13:06:58.923,8261646,7088822,7113244,2421356,2,2,2,2
2025-09-03 13:06:58.923,4067426,7105251,7113321,6615675,2,2,2,2
2025-09-03 13:06:58.924,4067474,7105040,2919059,6615776,2,2,2,2
2025-09-03 13:06:58.924,8261865,7105124,2919143,6615799,2,2,2,2
2025-09-03 13:06:58.925,8261882,7105135,7129844,6615814,2,2,2,2
2025-09-03 13:06:58.925,4067594,7105083,5016324,6615857,2,2,2,2
2025-09-03 13:06:58.925,8261898,7105151,7129868,6615828,2,2,2,2
2025-09-03 13:06:58.925,8261899,7088770,7113494,2421529,2,2,2,2
2025-09-03 13:06:58.926,8261917,2910867,7113515,4518765,2,2,2,2
2025-09-03 13:06:58.926,8262013,2910964,7113677,4518794,2,2,2,2
2025-09-03 13:06:58.926,4067730,7105285,7113698,6615995,2,2,2,2
2025-09-03 13:06:58.926,4076000,7105296,5016559,6616040,2,2,2,2
2025-09-03 13:06:58.927,8262129,7088957,7113724,2421747,2,2,2,2
2025-09-03 13:06:58.927,8261894,7089009,7113483,2421756,2,2,2,2
2025-09-03 13:06:58.927,8261952,7105412,2919264,6615825,2,2,2,2
2025-09-03 13:06:58.927,8261933,7105422,7129963,6615834,2,2,2,2
2025-09-03 13:06:58.928,8261942,5008283,7129978,6615906,2,2,2,2
2025-09-03 13:06:58.928,8262084,5008356,7129990,6615917,2,2,2,2
2025-09-03 13:06:58.928,8262029,7089100,7113613,2421620,2,2,2,2
2025-09-03 13:06:58.928,4067809,7088898,7113631,6615942,2,2,2,2
2025-09-03 13:06:58.929,8262271,7089041,7113836,2421768,2,2,2,2
2025-09-03 13:06:58.929,8262379,7105525,2919570,6616109,2,2,2,2
2025-09-03 13:06:58.930,8262146,7105542,7130340,6616192,2,2,2,2
2025-09-03 13:06:58.930,4067865,7105566,7113977,6616244,2,2,2,2
2025-09-03 13:06:58.930,8262174,7105566,7130363,6616211,2,2,2,2
2025-09-03 13:06:58.930,8262171,7089183,7113978,2421901,2,2,2,2
2025-09-03 13:06:58.931,8262160,2911253,7113968,4519040,2,2,2,2
2025-09-03 13:06:58.931,8262160,2911251,7113969,4519038,2,2,2,2
2025-09-03 13:06:58.931,8262164,2903067,7113976,2421890,2,2,2,2
2025-09-03 13:06:58.931,4076131,7105573,5016580,6616273,2,2,2,2
2025-09-03 13:06:58.932,8262266,7089269,7113753,2421989,2,2,2,2
2025-09-03 13:06:58.932,8262279,7089279,7113831,2421996,2,2,2,2
2025-09-03 13:06:58.932,4067975,7105728,7113833,6616295,2,2,2,2
2025-09-03 13:06:58.932,8262356,7105674,7130231,6616302,2,2,2,2
2025-09-03 13:06:58.933,8262368,5008531,7130244,6616308,2,2,2,2
2025-09-03 13:06:58.933,8262385,5008541,7130254,6616312,2,2,2,2
2025-09-03 13:06:58.933,8262409,2911476,7113954,6616077,2,2,2,2
2025-09-03 13:06:58.933,8262416,7089402,7113960,6616083,2,2,2,2
2025-09-03 13:06:58.934,8262501,7089164,7113975,2421784,2,2,2,2
2025-09-03 13:06:58.934,8262515,7105562,2919687,6616098,2,2,2,2
2025-09-03 13:06:58.935,8262593,7105642,2936092,6616178,2,2,2,2
2025-09-03 13:06:58.935,4068325,7105746,7114113,6616248,2,2,2,2
2025-09-03 13:06:58.935,4076302,7105785,5017064,6616313,2,2,2,2
2025-09-03 13:06:58.935,8262509,7089428,7113985,2422031,2,2,2,2
2025-09-03 13:06:58.936,8262536,2911597,7114010,4519271,2,2,2,2
2025-09-03 13:06:58.936,8262597,7105929,2919797,6616516,2,2,2,2
2025-09-03 13:06:58.936,8262663,2903534,7114201,4519400,2,2,2,2
2025-09-03 13:06:58.936,4076644,7105811,5017078,6616326,2,2,2,2
2025-09-03 13:06:58.937,8262775,7089478,7114247,2422039,2,2,2,2
2025-09-03 13:06:58.937,8262794,7089521,7114262,2422119,2,2,2,2
2025-09-03 13:06:58.937,4068506,7089471,7114345,6616438,2,2,2,2
2025-09-03 13:06:58.937,8262902,7105947,7130753,6616460,2,2,2,2
2025-09-03 13:06:58.938,4068361,7106026,2920083,6616536,2,2,2,2
2025-09-03 13:06:58.938,4068369,7106025,2920085,6616537,2,2,2,2
2025-09-03 13:06:58.938,8262672,2911714,7114448,6616466,2,2,2,2
2025-09-03 13:06:58.938,8262681,7089639,7114390,6616470,2,2,2,2
2025-09-03 13:06:58.939,8262810,7089761,7114260,2422287,2,2,2,2
2025-09-03 13:06:58.939,8262898,7106162,2920040,6616604,2,2,2,2
2025-09-03 13:06:58.940,4068623,7106250,7114376,6616696,2,2,2,2
2025-09-03 13:06:58.940,4068716,7106281,7114468,6616753,2,2,2,2
2025-09-03 13:06:58.940,4076919,7106291,5017327,6616791,2,2,2,2
2025-09-03 13:06:58.940,8262972,5009145,7130868,6616729,2,2,2,2
2025-09-03 13:06:58.941,8263049,7106050,2920189,6616804,2,2,2,2
2025-09-03 13:06:58.941,8263112,7106146,2920216,6616576,2,2,2,2
2025-09-03 13:06:58.941,8263156,2903663,7114534,4519432,2,2,2,2
2025-09-03 13:06:58.941,4077053,7106108,5017453,6616587,2,2,2,2
2025-09-03 13:06:58.942,8263165,2911864,7114535,6616580,2,2,2,2
2025-09-03 13:06:58.942,8263159,2911858,7114528,6616830,2,2,2,2
2025-09-03 13:06:58.942,4068849,7089698,7114514,6616819,2,2,2,2
2025-09-03 13:06:58.942,8263143,7106064,7130883,6616735,2,2,2,2
2025-09-03 13:06:58.943,4068839,7106067,2920193,6616795,2,2,2,2
2025-09-03 13:06:58.943,4077033,7106071,2920197,6616797,2,2,2,2
2025-09-03 13:06:58.943,8263136,7106058,2920189,6616787,2,2,2,2
2025-09-03 13:06:58.943,8263065,7089665,7114486,6616712,2,2,2,2
2025-09-03 13:06:58.944,8263131,7106049,7130866,6616709,2,2,2,2
2025-09-03 13:06:58.944,8263141,7106058,7130875,6616714,2,2,2,2
2025-09-03 13:06:58.944,8263167,7089763,7114516,2422431,2,2,2,2
2025-09-03 13:06:58.944,8263018,7106185,2920317,6616583,2,2,2,2
2025-09-03 13:06:58.945,8263051,2903786,7114717,4519526,2,2,2,2
2025-09-03 13:06:58.945,8263069,2903810,7114740,4519543,2,2,2,2
2025-09-03 13:06:58.945,4077030,7106316,5017344,6616771,2,2,2,2
2025-09-03 13:06:58.945,8263159,5009183,7130928,6616721,2,2,2,2
2025-09-03 13:06:58.946,8263168,7106404,2920210,6616787,2,2,2,2
2025-09-03 13:06:58.946,4068873,7089966,7114523,6616728,2,2,2,2
2025-09-03 13:06:58.946,8263189,2903932,7114540,4519652,2,2,2,2
2025-09-03 13:06:58.946,4077074,7106359,5017452,6616770,2,2,2,2
2025-09-03 13:06:58.947,8263179,2912111,7114529,6616728,2,2,2,2
2025-09-03 13:06:58.947,8263179,2912108,7114530,6616722,2,2,2,2
2025-09-03 13:06:58.947,8263187,7089972,7114599,6616728,2,2,2,2
2025-09-03 13:06:58.947,8263209,7106441,2936697,6616811,2,2,2,2
2025-09-03 13:06:58.948,4077176,7106516,2920329,6616820,2,2,2,2
2025-09-03 13:06:58.948,8263316,7090152,7114720,2422535,2,2,2,2
2025-09-03 13:06:58.948,8263401,7106553,2920431,6616861,2,2,2,2
2025-09-03 13:06:58.948,8263174,2912017,7114758,4519794,2,2,2,2
2025-09-03 13:06:58.949,8263205,7106415,7131239,6616969,2,2,2,2
2025-09-03 13:06:58.949,8263362,7106438,7131272,6617058,2,2,2,2
2025-09-03 13:06:58.949,8263396,7090149,7114985,2422529,2,2,2,2
2025-09-03 13:06:58.949,8263432,7106565,2920460,6616858,2,2,2,2
2025-09-03 13:06:58.950,8263453,2912287,7114786,4519790,2,2,2,2
2025-09-03 13:06:58.950,8263542,2912380,7114811,4519813,2,2,2,2
2025-09-03 13:06:58.950,4077458,7106774,5017746,6617052,2,2,2,2
2025-09-03 13:06:58.950,8263663,5009649,7131376,6617079,2,2,2,2
2025-09-03 13:06:58.951,8263431,7106567,2928901,6617104,2,2,2,2
2025-09-03 13:06:58.951,8263526,7090209,7115110,6617194,2,2,2,2
2025-09-03 13:06:58.951,8263555,2912381,7115202,4520065,2,2,2,2
2025-09-03 13:06:58.951,4077463,7106766,5018004,6617229,2,2,2,2
2025-09-03 13:06:58.952,8263664,2912484,7115243,6617314,2,2,2,2
2025-09-03 13:06:58.952,8263700,2912514,7115013,6617090,2,2,2,2
2025-09-03 13:06:58.952,8263788,7090458,7115038,6617112,2,2,2,2
2025-09-03 13:06:58.952,8263809,7106928,2937210,6617196,2,2,2,2
2025-09-03 13:06:58.953,4077723,7107013,2920845,6617282,2,2,2,2
2025-09-03 13:06:58.953,8263913,7090578,7115164,2422931,2,2,2,2
2025-09-03 13:06:58.953,8263928,7107042,2920938,6617313,2,2,2,2
2025-09-03 13:06:58.953,8263693,2912758,7115263,4520178,2,2,2,2
2025-09-03 13:06:58.954,8263718,7106835,7131672,6617354,2,2,2,2
2025-09-03 13:06:58.954,8263726,7106838,7131673,6617359,2,2,2,2
2025-09-03 13:06:58.954,8263797,7090451,7115291,2423052,2,2,2,2
2025-09-03 13:06:58.954,8263804,7106840,2921057,6617358,2,2,2,2
2025-09-03 13:06:58.955,8263816,2912612,7115312,4520217,2,2,2,2
2025-09-03 13:06:58.955,8263818,2912610,7115318,4520213,2,2,2,2
2025-09-03 13:06:58.955,4077695,7106838,5018218,6617348,2,2,2,2
2025-09-03 13:06:58.955,8263737,5009676,7131712,6617337,2,2,2,2
2025-09-03 13:06:58.956,8263802,7106821,2929179,6617332,2,2,2,2
2025-09-03 13:06:58.956,8263816,7090452,7115363,6617340,2,2,2,2
2025-09-03 13:06:58.956,8263833,2912542,7115311,4520196,2,2,2,2
2025-09-03 13:06:58.956,4077719,7106843,5018222,6617344,2,2,2,2
2025-09-03 13:06:58.957,8263898,2912541,7115315,6617347,2,2,2,2
2025-09-03 13:06:58.957,8263911,2912619,7131710,6617357,2,2,2,2
2025-09-03 13:06:58.957,8263923,7090489,7115404,6617366,2,2,2,2
2025-09-03 13:06:58.957,4069639,7107016,7115421,6617409,2,2,2,2
2025-09-03 13:06:58.958,8264035,7090591,7115507,2423155,2,2,2,2
2025-09-03 13:06:58.958,8264061,7090677,7115274,2423175,2,2,2,2
2025-09-03 13:06:58.958,8264075,7107076,2920988,6617555,2,2,2,2
2025-09-03 13:06:58.958,8264082,2912783,7115299,6617496,2,2,2,2
2025-09-03 13:06:58.959,8264157,7107100,7131757,6617572,2,2,2,2
2025-09-03 13:06:58.959,8264189,7107189,7131785,6617599,2,2,2,2
2025-09-03 13:06:58.959,8263951,7090820,7115418,2423055,2,2,2,2
2025-09-03 13:06:58.959,8264032,7090867,7115500,2423070,2,2,2,2
2025-09-03 13:06:58.960,8264051,2912994,7115521,4520302,2,2,2,2
2025-09-03 13:06:58.960,8264053,2912994,7115524,4520299,2,2,2,2
2025-09-03 13:06:58.960,4077948,7107304,5018382,6617456,2,2,2,2
2025-09-03 13:06:58.960,4077954,7107309,2921239,6617396,2,2,2,2
2025-09-03 13:06:58.961,8264071,7107309,2929438,6617393,2,2,2,2
2025-09-03 13:06:58.961,8264078,7090929,7115616,6617458,2,2,2,2
2025-09-03 13:06:58.961,8264120,7107316,2937703,6617461,2,2,2,2
2025-09-03 13:06:58.962,8264161,2913014,7131936,6617459,2,2,2,2
2025-09-03 13:06:58.962,8264168,2913018,7131937,6617459,2,2,2,2
2025-09-03 13:06:58.962,8264178,7090688,7115629,2423164,2,2,2,2
2025-09-03 13:06:58.962,4069902,7107102,7115660,6617533,2,2,2,2
2025-09-03 13:06:58.963,8264293,7090808,7115753,2423287,2,2,2,2
2025-09-03 13:06:58.963,8264310,7090824,7115769,2423297,2,2,2,2
2025-09-03 13:06:58.963,8264317,7107216,2921471,6617602,2,2,2,2
2025-09-03 13:06:58.963,8264321,7107223,2929411,6617602,2,2,2,2
2025-09-03 13:06:58.964,8264398,7107231,7131917,6617615,2,2,2,2
2025-09-03 13:06:58.964,4078309,7107316,5018464,6617662,2,2,2,2
2025-09-03 13:06:58.964,8264443,5010184,7132019,6617709,2,2,2,2
2025-09-03 13:06:58.964,8264215,2913053,7115722,6617733,2,2,2,2
2025-09-03 13:06:58.965,8264302,2913138,7115742,4520600,2,2,2,2
2025-09-03 13:06:58.965,8264330,2913163,7115770,4520689,2,2,2,2
2025-09-03 13:06:58.965,4070122,7107558,5018647,6617611,2,2,2,2
2025-09-03 13:06:58.965,4078342,7107330,2921587,6617635,2,2,2,2
2025-09-03 13:06:58.966,8264544,7090963,7115912,6617716,2,2,2,2
2025-09-03 13:06:58.966,8264559,7090976,7115924,6617729,2,2,2,2
2025-09-03 13:06:58.966,8264583,7107444,2938089,6617749,2,2,2,2
2025-09-03 13:06:58.966,8264675,7107472,7132165,6617839,2,2,2,2
2025-09-03 13:06:58.967,8264461,5010425,7132202,6617875,2,2,2,2
2025-09-03 13:06:58.967,8264554,7107610,2921611,6617906,2,2,2,2
2025-09-03 13:06:58.967,8264585,2913406,7116015,6618004,2,2,2,2
2025-09-03 13:06:58.967,4070387,7107817,7116057,6618109,2,2,2,2
2025-09-03 13:06:58.968,8264802,7091220,7116163,2423656,2,2,2,2
2025-09-03 13:06:58.968,8264846,7091319,7116264,2423694,2,2,2,2
2025-09-03 13:06:58.968,8264928,7107720,2921979,6618075,2,2,2,2
2025-09-03 13:06:58.968,8264905,7107725,2929922,6618078,2,2,2,2
2025-09-03 13:06:58.969,4078847,7107812,5018906,6618061,2,2,2,2
2025-09-03 13:06:58.969,4078695,7107851,5019007,6618126,2,2,2,2
2025-09-03 13:06:58.969,8264762,5010784,7132595,6618143,2,2,2,2
2025-09-03 13:06:58.969,8264909,2913647,7116255,6618223,2,2,2,2
2025-09-03 13:06:58.970,8264861,2913662,7116273,4521086,2,2,2,2
2025-09-03 13:06:58.970,8264910,7107985,2938369,6618251,2,2,2,2
2025-09-03 13:06:58.970,8264943,7091602,7116291,2423949,2,2,2,2
2025-09-03 13:06:58.971,8264946,7091664,7116289,6618251,2,2,2,2
2025-09-03 13:06:58.971,8264959,7091671,7116297,6618255,2,2,2,2
2025-09-03 13:06:58.971,4070669,7108066,7116307,6618293,2,2,2,2
2025-09-03 13:06:58.971,8264988,7108079,7132771,6618338,2,2,2,2
2025-09-03 13:06:58.972,8265071,7107843,2922106,6618354,2,2,2,2
2025-09-03 13:06:58.972,8265092,7107863,2922128,6618115,2,2,2,2
2025-09-03 13:06:58.972,8265151,7107952,2930409,6618141,2,2,2,2
2025-09-03 13:06:58.972,8265200,2913664,7116538,4521068,2,2,2,2
2025-09-03 13:06:58.973,8265215,7091595,7116296,2423926,2,2,2,2
2025-09-03 13:06:58.973,8264992,5010921,7132744,6618259,2,2,2,2
2025-09-03 13:06:58.973,8265018,2913798,7116483,6618348,2,2,2,2
2025-09-03 13:06:58.973,8265099,7091735,7116434,6618363,2,2,2,2
2025-09-03 13:06:58.974,4078994,7108123,5019290,6618370,2,2,2,2
2025-09-03 13:06:58.974,4070885,7108141,5019377,6618380,2,2,2,2
2025-09-03 13:06:58.974,4079097,7108157,2922243,6618397,2,2,2,2
2025-09-03 13:06:58.974,8265206,2913917,7132927,6618395,2,2,2,2
2025-09-03 13:06:58.975,8265165,7108212,2938610,6618384,2,2,2,2
2025-09-03 13:06:58.975,8265204,7108212,2938613,6618384,2,2,2,2
2025-09-03 13:06:58.975,8265220,7108216,7132924,6618392,2,2,2,2
2025-09-03 13:06:58.975,8265244,7091850,7116557,2424167,2,2,2,2
2025-09-03 13:06:58.976,8265313,2913931,7116561,4521318,2,2,2,2
2025-09-03 13:06:58.976,8265241,2913921,7116551,6618393,2,2,2,2
2025-09-03 13:06:58.976,8265234,2913914,7116544,4521230,2,2,2,2
2025-09-03 13:06:58.976,4079135,7108291,5019405,6618382,2,2,2,2
2025-09-03 13:06:58.977,8265324,7108235,2922263,6618387,2,2,2,2
2025-09-03 13:06:58.977,8265350,7108328,2922350,6618415,2,2,2,2
2025-09-03 13:06:58.977,8265413,7108102,2930572,6618573,2,2,2,2
2025-09-03 13:06:58.977,8265464,2913815,7116773,4521374,2,2,2,2
2025-09-03 13:06:58.978,4070926,7108143,2922493,6618612,2,2,2,2
2025-09-03 13:06:58.978,8265261,5011085,7132986,6618384,2,2,2,2
2025-09-03 13:06:58.978,8265277,2913950,7116588,6618396,2,2,2,2
2025-09-03 13:06:58.978,8265355,7091951,7116665,6618470,2,2,2,2
2025-09-03 13:06:58.979,4079243,7108334,5019510,6618433,2,2,2,2
2025-09-03 13:06:58.979,8265323,7091846,7116553,2424316,2,2,2,2
2025-09-03 13:06:58.979,8265318,7108224,2922241,6618609,2,2,2,2
2025-09-03 13:06:58.980,8265290,7108230,2938635,6618614,2,2,2,2
2025-09-03 13:06:58.980,4071031,7108307,7116570,6618370,2,2,2,2
2025-09-03 13:06:58.980,8265423,7108328,7133042,6618386,2,2,2,2
2025-09-03 13:06:58.980,8265444,7091960,7116677,2424160,2,2,2,2
2025-09-03 13:06:58.981,8265453,2914053,7116752,6618472,2,2,2,2
2025-09-03 13:06:58.981,8265476,2914144,7116775,6618493,2,2,2,2
2025-09-03 13:06:58.981,8265569,2914172,7116802,4521365,2,2,2,2
2025-09-03 13:06:58.981,4079480,7108559,5019669,6618563,2,2,2,2
2025-09-03 13:06:58.982,8265621,7092170,7116914,2424315,2,2,2,2
2025-09-03 13:06:58.982,8265630,7092172,7116919,2424318,2,2,2,2
2025-09-03 13:06:58.982,8265715,7108600,2930820,6618638,2,2,2,2
2025-09-03 13:06:58.982,8265489,2914065,7117023,4521576,2,2,2,2
2025-09-03 13:06:58.983,4079474,7108403,2922750,6618825,2,2,2,2
2025-09-03 13:06:58.983,4079490,7108549,2922511,6618842,2,2,2,2
2025-09-03 13:06:58.983,8265668,2914183,7133205,6618780,2,2,2,2
2025-09-03 13:06:58.983,8265616,7092178,7116829,6618851,2,2,2,2
2025-09-03 13:06:58.984,8282117,7108611,7133328,6618639,2,2,2,2
2025-09-03 13:06:58.984,4079723,7108644,2922741,6618671,2,2,2,2
2025-09-03 13:06:58.984,8282308,5011573,7133450,6618748,2,2,2,2
2025-09-03 13:06:58.985,4087962,7108807,7117084,6618758,2,2,2,2
2025-09-03 13:06:58.985,4088052,7108831,7117172,6618808,2,2,2,2
2025-09-03 13:06:58.985,8282114,7108846,7133571,6618852,2,2,2,2
2025-09-03 13:06:58.985,8282136,7092479,7117206,2424567,2,2,2,2
2025-09-03 13:06:58.986,8282224,2914322,7117289,6618888,2,2,2,2
2025-09-03 13:06:58.986,8265853,7108638,2931186,6618897,2,2,2,2
2025-09-03 13:06:58.986,8282260,2914417,7117067,4521829,2,2,2,2
2025-09-03 13:06:58.986,8282348,7108745,7133537,6619001,2,2,2,2
2025-09-03 13:06:58.987,8282360,7092403,7117164,2424702,2,2,2,2
2025-09-03 13:06:58.987,8282383,7092422,7117187,2424725,2,2,2,2
2025-09-03 13:06:58.987,8266053,7108859,2931096,6619112,2,2,2,2
2025-09-03 13:06:58.987,8282501,2914589,7117302,4521739,2,2,2,2
2025-09-03 13:06:58.988,8282614,5011849,7133761,6618997,2,2,2,2
2025-09-03 13:06:58.988,4079883,7109080,2923123,6619079,2,2,2,2
2025-09-03 13:06:58.988,8282385,5011869,7133747,6619014,2,2,2,2
2025-09-03 13:06:58.988,8266012,7109092,2931322,6619084,2,2,2,2
2025-09-03 13:06:58.989,4079892,7109082,2923125,6618937,2,2,2,2
2025-09-03 13:06:58.989,8282405,5011949,7133899,6619015,2,2,2,2
2025-09-03 13:06:58.990,4088181,7109116,7117463,6619061,2,2,2,2
2025-09-03 13:06:58.990,4088192,7108865,7117538,6619071,2,2,2,2
2025-09-03 13:06:58.990,8282569,7108867,7133927,6619107,2,2,2,2
2025-09-03 13:06:58.990,4080000,7109114,5020315,6619097,2,2,2,2
2025-09-03 13:06:58.991,8282485,2914794,7117519,6619015,2,2,2,2
2025-09-03 13:06:58.991,8282487,2914797,7117525,6619016,2,2,2,2
2025-09-03 13:06:58.991,4088201,7109115,7117543,6619032,2,2,2,2
2025-09-03 13:06:58.991,8282579,7108865,7133933,6619039,2,2,2,2
2025-09-03 13:06:58.992,8282523,7092485,7117556,2424733,2,2,2,2
2025-09-03 13:06:58.992,8282605,7092533,7117567,2424808,2,2,2,2
2025-09-03 13:06:58.992,8266236,7108964,2931214,6619124,2,2,2,2
2025-09-03 13:06:58.992,8282628,2914668,7117333,4521979,2,2,2,2
2025-09-03 13:06:58.993,8282620,5011809,7133707,6619114,2,2,2,2
2025-09-03 13:06:58.993,8282618,5011808,7133703,6619108,2,2,2,2
2025-09-03 13:06:58.993,8282614,7092534,7117314,2424732,2,2,2,2
2025-09-03 13:06:58.993,8266232,7108888,2931203,6619097,2,2,2,2
2025-09-03 13:06:58.994,4080270,7109097,2923158,6553637,2,2,2,2
2025-09-03 13:06:58.994,8266472,7109117,2923245,6553662,2,2,2,2
2025-09-03 13:06:58.995,8266244,7109142,2939655,6553752,2,2,2,2
2025-09-03 13:06:58.995,8266306,7109237,2939748,6553844,2,2,2,2
2025-09-03 13:06:58.995,8282757,2914965,7117764,2359313,2,2,2,2
2025-09-03 13:06:58.996,8282858,2915069,7117800,6553703,2,2,2,2
2025-09-03 13:06:58.996,8282880,2914831,7117821,6553721,2,2,2,2
2025-09-03 13:06:58.996,4088603,7109160,7117591,6553750,2,2,2,2
2025-09-03 13:06:58.996,4088694,7109312,5020529,6553806,2,2,2,2
2025-09-03 13:06:58.997,4072307,7109242,2923373,6553829,2,2,2,2
2025-09-03 13:06:58.997,4072290,7109225,2923361,6553811,2,2,2,2
2025-09-03 13:06:58.997,8282921,2914923,7117605,6553746,2,2,2,2
2025-09-03 13:06:58.997,8283002,2914936,7117619,4456607,2,2,2,2
2025-09-03 13:06:58.998,8283078,7109248,7134078,6553832,2,2,2,2
2025-09-03 13:06:58.998,8283073,7109239,7134072,6553757,2,2,2,2
2025-09-03 13:06:58.998,8283011,7092852,7117688,2359449,2,2,2,2
2025-09-03 13:06:58.998,8283029,7092866,7117707,2359529,2,2,2,2
2025-09-03 13:06:58.999,4088800,7109323,5020564,6553840,2,2,2,2
2025-09-03 13:06:58.999,4088811,7109338,5020640,6553851,2,2,2,2
2025-09-03 13:06:58.999,8282889,7109368,7134200,6553880,2,2,2,2
2025-09-03 13:06:58.999,8282931,5012320,7134238,6553980,2,2,2,2
2025-09-03 13:06:59.000,8266629,7109490,2931826,6554059,2,2,2,2
2025-09-03 13:06:59.000,8266638,7109501,2931836,6554068,2,2,2,2
2025-09-03 13:06:59.000,8283104,2915211,7118026,2359711,2,2,2,2
2025-09-03 13:06:59.001,8283164,7092994,7117827,2359649,2,2,2,2
2025-09-03 13:06:59.001,8283257,7093051,7117852,2359674,2,2,2,2
2025-09-03 13:06:59.001,4088976,7109422,7117941,6553998,2,2,2,2
2025-09-03 13:06:59.001,8266983,7109507,7134348,6554015,2,2,2,2
2025-09-03 13:06:59.002,4072692,7109516,2923675,6554090,2,2,2,2
2025-09-03 13:06:59.002,4072448,7109523,2923752,6554097,2,2,2,2
2025-09-03 13:06:59.002,8283152,2915299,7118074,6554111,2,2,2,2
2025-09-03 13:06:59.002,8283240,2915322,7118098,4456982,2,2,2,2
2025-09-03 13:06:59.003,8283363,7093368,7118219,2359945,2,2,2,2
2025-09-03 13:06:59.003,8266978,7109751,2932102,6554312,2,2,2,2
2025-09-03 13:06:59.004,4089062,7109686,5021061,6554245,2,2,2,2
2025-09-03 13:06:59.004,4089074,7109828,7118227,6554251,2,2,2,2
2025-09-03 13:06:59.004,4080892,7109835,5021081,6554316,2,2,2,2
2025-09-03 13:06:59.004,8283395,5012629,7134689,6554255,2,2,2,2
2025-09-03 13:06:59.005,8283491,2915569,7118331,4457195,2,2,2,2
2025-09-03 13:06:59.005,8267144,7109648,2931997,6554121,2,2,2,2
2025-09-03 13:06:59.005,8267229,7109731,7134581,6554135,2,2,2,2
2025-09-03 13:06:59.005,4081137,7109684,5021063,6554150,2,2,2,2
2025-09-03 13:06:59.006,8283636,7093370,7118222,2359917,2,2,2,2
2025-09-03 13:06:59.006,8283645,7093381,7118234,2359920,2,2,2,2
2025-09-03 13:06:59.006,4089093,7109834,7118238,6554222,2,2,2,2
2025-09-03 13:06:59.006,8267025,7109782,7134696,6554225,2,2,2,2
2025-09-03 13:06:59.007,8283423,5012704,7134704,6554233,2,2,2,2
2025-09-03 13:06:59.007,4072802,7109857,2924019,6554172,2,2,2,2
2025-09-03 13:06:59.007,8267122,7109866,2932224,6554311,2,2,2,2
2025-09-03 13:06:59.007,4089221,7093498,7118349,6554261,2,2,2,2
2025-09-03 13:06:59.008,8283638,7110001,7134847,6554363,2,2,2,2
2025-09-03 13:06:59.008,8283665,7093647,7118491,2360082,2,2,2,2
2025-09-03 13:06:59.008,8267363,7110118,2932464,6554403,2,2,2,2
2025-09-03 13:06:59.009,4089444,7110120,7118578,6554436,2,2,2,2
2025-09-03 13:06:59.009,8283771,2915837,7118345,2360185,2,2,2,2
2025-09-03 13:06:59.009,4081306,7109911,5021285,6554581,2,2,2,2
2025-09-03 13:06:59.009,8283885,7093601,7118450,2360291,2,2,2,2
2025-09-03 13:06:59.010,8267274,7110009,2932363,6554619,2,2,2,2
2025-09-03 13:06:59.010,8267333,7110035,2932453,6554389,2,2,2,2
2025-09-03 13:06:59.010,8283778,2915817,7118595,4457324,2,2,2,2
2025-09-03 13:06:59.010,4081302,7110138,5021458,6554426,2,2,2,2
2025-09-03 13:06:59.011,8283878,7093769,7118691,2360197,2,2,2,2
2025-09-03 13:06:59.011,8283884,2915853,7118634,6554501,2,2,2,2
2025-09-03 13:06:59.011,4089576,7093768,7118694,6554495,2,2,2,2
2025-09-03 13:06:59.011,8283800,2915827,7118615,4457325,2,2,2,2
2025-09-03 13:06:59.012,4073114,7110131,2924310,6554411,2,2,2,2
2025-09-03 13:06:59.012,4073184,7110139,2924312,6554414,2,2,2,2
2025-09-03 13:06:59.012,8283888,2915850,7118628,6554491,2,2,2,2
2025-09-03 13:06:59.012,8283914,7093793,7118719,6554508,2,2,2,2
2025-09-03 13:06:59.013,8284098,7110288,7135180,6554610,2,2,2,2
2025-09-03 13:06:59.013,8284043,7093912,7118834,2360311,2,2,2,2
2025-09-03 13:06:59.013,8267667,7110371,2924541,6554624,2,2,2,2
2025-09-03 13:06:59.014,4089825,7110386,7118603,6554638,2,2,2,2
2025-09-03 13:06:59.014,4089836,7110398,7118614,6554676,2,2,2,2
2025-09-03 13:06:59.014,8284134,7110396,7134998,6554641,2,2,2,2
2025-09-03 13:06:59.014,8284133,7094009,7118612,2360332,2,2,2,2
2025-09-03 13:06:59.015,8267717,7110397,2932500,6554635,2,2,2,2
2025-09-03 13:06:59.015,8267723,7110146,2932506,6554641,2,2,2,2
2025-09-03 13:06:59.015,8284150,2915851,7118632,4457497,2,2,2,2
2025-09-03 13:06:59.015,8283923,7110243,7135106,6554738,2,2,2,2
2025-09-03 13:06:59.016,8284000,7093872,7118739,2360452,2,2,2,2
2025-09-03 13:06:59.016,8284011,7093876,7118746,2360455,2,2,2,2
2025-09-03 13:06:59.016,8267642,7110270,2932712,6554830,2,2,2,2
2025-09-03 13:06:59.016,8284040,2915979,7118838,4457628,2,2,2,2
2025-09-03 13:06:59.017,8284121,5013145,7135238,6554855,2,2,2,2
2025-09-03 13:06:59.017,4073458,7110391,2941026,6554879,2,2,2,2
2025-09-03 13:06:59.017,8284168,2916107,7135288,6554637,2,2,2,2
2025-09-03 13:06:59.017,8267835,7110428,2932872,6554653,2,2,2,2
2025-09-03 13:06:59.018,4081907,7110642,2940952,6554857,2,2,2,2
2025-09-03 13:06:59.018,8284410,5013496,7135258,6554858,2,2,2,2
2025-09-03 13:06:59.019,4090110,7110653,7135328,6554826,2,2,2,2
2025-09-03 13:06:59.019,4089860,7110406,7135334,6554831,2,2,2,2
2025-09-03 13:06:59.019,8284177,7110416,7135345,6554874,2,2,2,2
2025-09-03 13:06:59.019,8284189,7094041,7135355,2360579,2,2,2,2
2025-09-03 13:06:59.020,8284259,2916122,7135291,4457735,2,2,2,2
2025-09-03 13:06:59.020,8284266,2916126,7135293,6554890,2,2,2,2
2025-09-03 13:06:59.020,4089975,7110437,7135364,6554894,2,2,2,2
2025-09-03 13:06:59.020,4081817,7110596,5038304,6554952,2,2,2,2
2025-09-03 13:06:59.021,8284408,7094210,7135481,2360706,2,2,2,2
2025-09-03 13:06:59.021,8284439,7094269,7135512,2360801,2,2,2,2
2025-09-03 13:06:59.021,8268109,7110677,2933108,6555131,2,2,2,2
2025-09-03 13:06:59.021,8284535,2916449,7135680,4457735,2,2,2,2
2025-09-03 13:06:59.022,8284621,5013617,7135670,6554904,2,2,2,2
2025-09-03 13:06:59.022,8284642,5013634,7135686,6554987,2,2,2,2
2025-09-03 13:06:59.022,8284647,7127169,7135719,2360679,2,2,2,2
2025-09-03 13:06:59.022,8284646,7127232,7135716,6554980,2,2,2,2
2025-09-03 13:06:59.023,4082157,7110853,2941416,6554913,2,2,2,2
2025-09-03 13:06:59.023,8268280,7110795,2941426,6554914,2,2,2,2
2025-09-03 13:06:59.024,8268042,7110809,2941186,6554992,2,2,2,2
2025-09-03 13:06:59.024,8268092,7110891,2941206,6555006,2,2,2,2
2025-09-03 13:06:59.024,8284530,7127293,7135599,2360720,2,2,2,2
2025-09-03 13:06:59.025,8284537,2916353,7135539,6555026,2,2,2,2
2025-09-03 13:06:59.025,8284563,2916372,7135688,6555108,2,2,2,2
2025-09-03 13:06:59.025,4090349,7110696,7135647,6555122,2,2,2,2
2025-09-03 13:06:59.025,4082190,7110855,5038589,6555151,2,2,2,2
2025-09-03 13:06:59.026,8268390,7110886,2941468,6555180,2,2,2,2
2025-09-03 13:06:59.026,4074103,7110902,2941548,6555192,2,2,2,2
2025-09-03 13:06:59.026,8284812,2916615,7135806,6555270,2,2,2,2
2025-09-03 13:06:59.026,8284901,2916638,7135957,4458139,2,2,2,2
2025-09-03 13:06:59.027,8284919,5013868,7135940,6555368,2,2,2,2
2025-09-03 13:06:59.027,8284682,5013888,7135995,6555387,2,2,2,2
2025-09-03 13:06:59.027,8284699,7127439,7135760,2360845,2,2,2,2
2025-09-03 13:06:59.027,8284773,7127507,7135770,6555156,2,2,2,2
2025-09-03 13:06:59.028,4090392,7111109,5038609,6555143,2,2,2,2
2025-09-03 13:06:59.028,4090379,7110961,5038594,6555382,2,2,2,2
2025-09-03 13:06:59.028,4082194,7110967,2941452,6555388,2,2,2,2
2025-09-03 13:06:59.028,8284722,5013909,7135782,6555158,2,2,2,2
2025-09-03 13:06:59.029,8268419,7111139,2941554,6555232,2,2,2,2
2025-09-03 13:06:59.029,8268430,7111153,2941565,6555244,2,2,2,2
2025-09-03 13:06:59.029,8284881,7111151,7135873,6555241,2,2,2,2
2025-09-03 13:06:59.030,8284804,7127518,7135858,6555158,2,2,2,2
2025-09-03 13:06:59.030,8284803,2916765,7135794,6555156,2,2,2,2
2025-09-03 13:06:59.030,4090512,7111147,7135871,6555232,2,2,2,2
2025-09-03 13:06:59.030,8284913,7110923,7135897,6555261,2,2,2,2
2025-09-03 13:06:59.031,4074252,7111010,2941683,6555346,2,2,2,2
2025-09-03 13:06:59.031,4074264,7111021,2941696,6555355,2,2,2,2
2025-09-03 13:06:59.031,8268657,7111045,2933532,6555381,2,2,2,2
2025-09-03 13:06:59.031,8285075,2916839,7136057,4458258,2,2,2,2
2025-09-03 13:06:59.032,8285161,5014012,7136140,6555492,2,2,2,2
2025-09-03 13:06:59.032,8285166,7111163,7136140,6555492,2,2,2,2
2025-09-03 13:06:59.032,8285161,7127542,7136133,2361184,2,2,2,2
2025-09-03 13:06:59.032,8268777,7111158,2933637,6555424,2,2,2,2
2025-09-03 13:06:59.033,4090873,7111170,5038990,6555463,2,2,2,2
2025-09-03 13:06:59.033,4090625,7111174,5038995,6555468,2,2,2,2
2025-09-03 13:06:59.033,4082436,7111180,2941844,6555436,2,2,2,2
2025-09-03 13:06:59.033,8284934,5014027,7136209,6555501,2,2,2,2
2025-09-03 13:06:59.034,8268593,7111188,2941851,6555511,2,2,2,2
2025-09-03 13:06:59.034,8268623,7111277,2941940,6555601,2,2,2,2
2025-09-03 13:06:59.034,8285058,2916992,7136004,2361314,2,2,2,2
2025-09-03 13:06:59.034,4082583,7111380,5038876,6555635,2,2,2,2
2025-09-03 13:06:59.035,8285162,2917097,7136050,6555397,2,2,2,2
2025-09-03 13:06:59.035,8285196,2916868,7136211,6555490,2,2,2,2
2025-09-03 13:06:59.035,4090979,7111190,7136234,6555506,2,2,2,2
2025-09-03 13:06:59.035,8268840,7111195,7136240,6555509,2,2,2,2
2025-09-03 13:06:59.036,4074526,7111193,2941928,6555439,2,2,2,2
2025-09-03 13:06:59.036,4074603,7111269,2941934,6555447,2,2,2,2
2025-09-03 13:06:59.036,8268927,7111291,2933763,6555592,2,2,2,2
2025-09-03 13:06:59.036,4091031,7111381,7136282,6555549,2,2,2,2
2025-09-03 13:06:59.037,8285409,5014168,7136322,6555550,2,2,2,2
2025-09-03 13:06:59.037,8285418,7111322,7136331,6555618,2,2,2,2
2025-09-03 13:06:59.037,8285185,7127793,7136386,2361335,2,2,2,2
2025-09-03 13:06:59.037,8268809,7111412,2933896,6555640,2,2,2,2
2025-09-03 13:06:59.038,4082789,7111433,5039341,6555661,2,2,2,2
2025-09-03 13:06:59.038,8285239,5014297,7136511,6555675,2,2,2,2
2025-09-03 13:06:59.039,8268981,7111536,2941972,6555695,2,2,2,2
2025-09-03 13:06:59.039,8269041,7111557,2933863,6555841,2,2,2,2
2025-09-03 13:06:59.039,8285445,2917278,7136316,2361491,2,2,2,2
2025-09-03 13:06:59.039,4083045,7111424,5039260,6555889,2,2,2,2
2025-09-03 13:06:59.040,8285583,7127843,7136512,6555665,2,2,2,2
2025-09-03 13:06:59.040,8285666,2917236,7136528,6555746,2,2,2,2
2025-09-03 13:06:59.040,4091378,7111616,7136608,6555757,2,2,2,2
2025-09-03 13:06:59.040,8269062,7111570,7136626,6555773,2,2,2,2
2025-09-03 13:06:59.041,4074854,7111661,2942354,6555866,2,2,2,2
2025-09-03 13:06:59.041,8285565,7128068,7136747,2361583,2,2,2,2
2025-09-03 13:06:59.041,8269204,7111706,2934021,6555909,2,2,2,2
2025-09-03 13:06:59.041,4091398,7111879,7136627,6556017,2,2,2,2
2025-09-03 13:06:59.042,8285743,7111920,7136698,6556058,2,2,2,2
2025-09-03 13:06:59.042,8285910,7111702,7136766,6556157,2,2,2,2
2025-09-03 13:06:59.042,8285932,7128139,7136784,2361620,2,2,2,2
2025-09-03 13:06:59.042,8269319,7111812,2934377,6555947,2,2,2,2
2025-09-03 13:06:59.043,8285704,2917494,7136805,2361629,2,2,2,2
2025-09-03 13:06:59.043,4083447,7111719,5039635,6555911,2,2,2,2
2025-09-03 13:06:59.043,8285702,5014642,7136802,6555921,2,2,2,2
2025-09-03 13:06:59.044,8269370,7111813,2934390,6555937,2,2,2,2
2025-09-03 13:06:59.044,8269382,7111823,2934396,6555941,2,2,2,2
2025-09-03 13:06:59.044,8285805,2917520,7136962,2361701,2,2,2,2
2025-09-03 13:06:59.044,4083323,7111903,5039762,6555949,2,2,2,2
2025-09-03 13:06:59.045,8285837,2917617,7137001,6556028,2,2,2,2
2025-09-03 13:06:59.045,8285920,2917635,7137016,6556038,2,2,2,2
2025-09-03 13:06:59.045,4091627,7111941,7137021,6556043,2,2,2,2
2025-09-03 13:06:59.045,8269553,7111942,7136771,6556044,2,2,2,2
2025-09-03 13:06:59.046,4075258,7111949,2942472,6556112,2,2,2,2
2025-09-03 13:06:59.046,4075264,7111956,2942479,6556115,2,2,2,2
2025-09-03 13:06:59.046,8285967,2917737,7136804,6556136,2,2,2,2
2025-09-03 13:06:59.046,4091750,7128516,7136893,6556157,2,2,2,2
2025-09-03 13:06:59.047,8286144,7112095,7136954,6556183,2,2,2,2
2025-09-03 13:06:59.047,8286166,7112180,7137008,6556263,2,2,2,2
2025-09-03 13:06:59.047,8286185,7128325,7137022,2361974,2,2,2,2
2025-09-03 13:06:59.047,8269823,7111960,2934546,6556359,2,2,2,2
2025-09-03 13:06:59.048,4091654,7111973,7137054,6556339,2,2,2,2
2025-09-03 13:06:59.048,4091659,7111973,7137120,6556341,2,2,2,2
2025-09-03 13:06:59.048,8285965,7112035,7137091,6556308,2,2,2,2
2025-09-03 13:06:59.048,8285980,5014897,7137138,6556385,2,2,2,2
2025-09-03 13:06:59.049,8269638,7112056,2934647,6556389,2,2,2,2
2025-09-03 13:06:59.049,8269642,7112061,2934647,6556386,2,2,2,2
2025-09-03 13:06:59.049,8286072,2917767,7137219,4459248,2,2,2,2
2025-09-03 13:06:59.049,4083598,7112152,5040020,6556160,2,2,2,2
2025-09-03 13:06:59.050,8286184,7128555,7137264,6556178,2,2,2,2
2025-09-03 13:06:59.050,8286213,2917899,7137039,6556269,2,2,2,2
2025-09-03 13:06:59.050,8269894,7112303,2934640,6556366,2,2,2,2
2025-09-03 13:06:59.050,8270020,7112331,7137164,6556392,2,2,2,2
2025-09-03 13:06:59.051,4075665,7112344,2942871,6556400,2,2,2,2
2025-09-03 13:06:59.051,4075749,7112425,2942958,6556419,2,2,2,2
2025-09-03 13:06:59.051,8286456,2918138,7137281,6556438,2,2,2,2
2025-09-03 13:06:59.051,8286459,2918140,7137286,4459289,2,2,2,2
2025-09-03 13:06:59.052,4092017,7112239,2943101,6556613,2,2,2,2
2025-09-03 13:06:59.052,8269963,7112326,2934933,6556633,2,2,2,2
2025-09-03 13:06:59.053,4092132,7112418,7137516,6556622,2,2,2,2
2025-09-03 13:06:59.053,4092156,7112440,7137282,6556418,2,2,2,2
2025-09-03 13:06:59.053,8286481,7112456,7137300,6556432,2,2,2,2
2025-09-03 13:06:59.053,8286506,5015325,7137353,6556518,2,2,2,2
2025-09-03 13:06:59.054,8286611,2918275,7137484,4459404,2,2,2,2
2025-09-03 13:06:59.054,8286704,2918299,7137509,6556642,2,2,2,2
2025-09-03 13:06:59.054,4092412,7112679,7137518,6556620,2,2,2,2
2025-09-03 13:06:59.054,4092176,7112697,5040384,6556667,2,2,2,2
2025-09-03 13:06:59.055,8286568,7128844,7137557,2362381,2,2,2,2
2025-09-03 13:06:59.055,8286589,7128891,7137642,2362398,2,2,2,2
2025-09-03 13:06:59.055,8270261,7112560,2935168,6556720,2,2,2,2
2025-09-03 13:06:59.055,8286704,2918282,7137752,4459659,2,2,2,2
2025-09-03 13:06:59.056,8286720,5015449,7137731,6556826,2,2,2,2
2025-09-03 13:06:59.056,8286716,5015445,7137721,6556817,2,2,2,2
2025-09-03 13:06:59.056,8286698,2918275,7137736,6556794,2,2,2,2
2025-09-03 13:06:59.056,8286697,7128894,7137668,6556789,2,2,2,2
2025-09-03 13:06:59.057,8286748,7129058,7137770,2362514,2,2,2,2
2025-09-03 13:06:59.057,8270435,7112682,2943474,6556888,2,2,2,2
2025-09-03 13:06:59.058,4092520,7112693,7137786,6556863,2,2,2,2
2025-09-03 13:06:59.058,8270415,7112702,2943235,6556903,2,2,2,2
2025-09-03 13:06:59.058,8286769,7112705,7137541,6556899,2,2,2,2
2025-09-03 13:06:59.058,8286844,7129100,7137551,2362610,2,2,2,2
2025-09-03 13:06:59.059,8286860,2918497,7137566,4459775,2,2,2,2
2025-09-03 13:06:59.059,8286874,2918503,7137579,6556679,2,2,2,2
2025-09-03 13:06:59.059,8286954,2918515,7137591,4459538,2,2,2,2
2025-09-03 13:06:59.059,4092658,7112759,5040505,6556721,2,2,2,2
2025-09-03 13:06:59.060,8270494,7112808,2935144,6556922,2,2,2,2
2025-09-03 13:06:59.060,8270479,7112727,2943256,6556904,2,2,2,2
2025-09-03 13:06:59.060,8270470,7112710,2935054,6556887,2,2,2,2
2025-09-03 13:06:59.060,8286850,2918398,7137546,4459663,2,2,2,2
2025-09-03 13:06:59.061,8286922,5015550,7137550,6556816,2,2,2,2
2025-09-03 13:06:59.061,8286953,5015572,7137611,6556905,2,2,2,2
2025-09-03 13:06:59.061,8286727,7129167,7137669,2362375,2,2,2,2
2025-09-03 13:06:59.061,8270391,7112830,2935190,6556692,2,2,2,2
2025-09-03 13:06:59.062,4092533,7112926,2943483,6556718,2,2,2,2
2025-09-03 13:06:59.062,8286776,5015711,7137788,6556782,2,2,2,2
2025-09-03 13:06:59.063,8270451,7112855,2943478,6556771,2,2,2,2
2025-09-03 13:06:59.063,4092547,7112932,7137793,6556748,2,2,2,2
2025-09-03 13:06:59.063,8286929,7112943,7137802,6556785,2,2,2,2
2025-09-03 13:06:59.063,4092647,7112708,2943518,6556868,2,2,2,2
2025-09-03 13:06:59.064,8286975,2918423,7137837,6556822,2,2,2,2
2025-09-03 13:06:59.064,8287005,2918510,7137994,6556910,2,2,2,2
2025-09-03 13:06:59.064,4092774,7112761,7137941,6556922,2,2,2,2
2025-09-03 13:06:59.064,8287170,7112853,7138030,6556947,2,2,2,2
2025-09-03 13:06:59.065,8270746,7112940,2943493,6556970,2,2,2,2
2025-09-03 13:06:59.065,8287219,7129350,7137822,2362754,2,2,2,2
2025-09-03 13:06:59.065,8270596,7112982,2935408,6557138,2,2,2,2
2025-09-03 13:06:59.065,4092699,7113007,7137927,6557163,2,2,2,2
2025-09-03 13:06:59.066,8287019,5015930,7137974,6557174,2,2,2,2
2025-09-03 13:06:59.066,8287030,5015937,7137989,6557179,2,2,2,2
2025-09-03 13:06:59.066,8287103,7129482,7138027,2362627,2,2,2,2
2025-09-03 13:06:59.066,8270737,7113106,2935541,6556943,2,2,2,2
2025-09-03 13:06:59.067,4092822,7113173,5040890,6556979,2,2,2,2
2025-09-03 13:06:59.067,4092931,7112960,2943845,6556986,2,2,2,2
2025-09-03 13:06:59.067,8287260,7129401,7138177,2362771,2,2,2,2
2025-09-03 13:06:59.068,8270970,7113083,2943903,6557170,2,2,2,2
2025-09-03 13:06:59.068,8271040,7113116,2943744,6557206,2,2,2,2
2025-09-03 13:06:59.068,4093028,7113237,5041017,6557390,2,2,2,2
2025-09-03 13:06:59.069,8287355,7129671,7138189,2363036,2,2,2,2
2025-09-03 13:06:59.069,8287388,2919042,7138280,6557426,2,2,2,2
2025-09-03 13:06:59.069,4093172,7113436,7138309,6557190,2,2,2,2
2025-09-03 13:06:59.069,8287496,2919150,7138327,2362900,2,2,2,2
2025-09-03 13:06:59.070,4076830,7113469,2944103,6557222,2,2,2,2
2025-09-03 13:06:59.070,8287601,2918922,7138359,6557298,2,2,2,2
2025-09-03 13:06:59.070,8287618,2918938,7138499,6557306,2,2,2,2
2025-09-03 13:06:59.070,4093332,7113257,7138453,6557319,2,2,2,2
2025-09-03 13:06:59.071,4077050,7113358,2944249,6557417,2,2,2,2
2025-09-03 13:06:59.071,8271108,7113368,2935811,6557425,2,2,2,2
2025-09-03 13:06:59.072,4093197,7113442,5041164,6557434,2,2,2,2
2025-09-03 13:06:59.072,4093283,7113465,5041251,6557454,2,2,2,2
2025-09-03 13:06:59.072,8287537,7113484,7138422,6557470,2,2,2,2
2025-09-03 13:06:59.072,8287611,7129909,7138432,2363235,2,2,2,2
2025-09-03 13:06:59.073,8287617,2919193,7138500,4460387,2,2,2,2
2025-09-03 13:06:59.073,8287627,2919264,7138506,4460389,2,2,2,2
2025-09-03 13:06:59.073,4093339,7113516,5041306,6557554,2,2,2,2
2025-09-03 13:06:59.073,4093343,7113520,5041310,6557491,2,2,2,2
2025-09-03 13:06:59.074,8287723,7129977,7138537,2363257,2,2,2,2
2025-09-03 13:06:59.074,8287738,7129991,7138551,2363265,2,2,2,2
2025-09-03 13:06:59.074,8271408,7113624,2936073,6557647,2,2,2,2
2025-09-03 13:06:59.074,8271381,7113626,7138571,6557584,2,2,2,2
2025-09-03 13:06:59.075,8287750,5016456,7138550,6557564,2,2,2,2
2025-09-03 13:06:59.075,8287751,5016458,7138553,6557571,2,2,2,2
2025-09-03 13:06:59.075,8287842,7130054,7138580,2363290,2,2,2,2
2025-09-03 13:06:59.075,4093551,7113715,7138657,6557667,2,2,2,2
2025-09-03 13:06:59.076,4077203,7113486,2944375,6557690,2,2,2,2
2025-09-03 13:06:59.076,8271516,7113495,2936193,6557442,2,2,2,2
2025-09-03 13:06:59.077,8271604,7113580,7138713,6557460,2,2,2,2
2025-09-03 13:06:59.077,8271614,7113590,7138786,6557468,2,2,2,2
2025-09-03 13:06:59.077,8287746,7113589,7138755,6557467,2,2,2,2
2025-09-03 13:06:59.077,8287746,7129971,7138785,2363156,2,2,2,2
2025-09-03 13:06:59.078,8287756,2919290,7138792,4460310,2,2,2,2
2025-09-03 13:06:59.078,8287847,2919316,7138565,4460396,2,2,2,2
2025-09-03 13:06:59.078,4093578,7113717,7138660,6557581,2,2,2,2
2025-09-03 13:06:59.078,8287974,7113742,7138684,6557668,2,2,2,2
2025-09-03 13:06:59.079,8271608,7113824,2936204,6557681,2,2,2,2
2025-09-03 13:06:59.079,8271630,7113845,2936288,6557703,2,2,2,2
2025-09-03 13:06:59.079,8271686,7113862,2936309,6557720,2,2,2,2
2025-09-03 13:06:59.079,8288116,2919573,7138824,2363490,2,2,2,2
2025-09-03 13:06:59.080,8288205,5016813,7138883,6557814,2,2,2,2
2025-09-03 13:06:59.080,8288229,7130115,7138943,2371726,2,2,2,2
2025-09-03 13:06:59.080,8288000,7130173,7138967,2363624,2,2,2,2
2025-09-03 13:06:59.080,8271671,7113844,2936556,6557951,2,2,2,2
2025-09-03 13:06:59.081,4093802,7113922,5041917,6557705,2,2,2,2
2025-09-03 13:06:59.081,4093818,7113930,5041674,6557712,2,2,2,2
2025-09-03 13:06:59.081,4077448,7113873,2944536,6557723,2,2,2,2
2025-09-03 13:06:59.081,8288211,2919577,7138856,6557797,2,2,2,2
2025-09-03 13:06:59.082,8271854,7113974,7138950,6557826,2,2,2,2
2025-09-03 13:06:59.082,8288273,2919705,7139052,4460769,2,2,2,2
2025-09-03 13:06:59.082,4077711,7114194,2944875,6557978,2,2,2,2
2025-09-03 13:06:59.083,8288488,2919912,7139134,4460909,2,2,2,2
2025-09-03 13:06:59.083,8288507,7130619,7139216,6558076,2,2,2,2
2025-09-03 13:06:59.083,4093964,7113994,7139298,6558089,2,2,2,2
2025-09-03 13:06:59.083,8288306,7114094,7139079,6558184,2,2,2,2
2025-09-03 13:06:59.084,8272008,7114115,2944798,6558202,2,2,2,2
2025-09-03 13:06:59.084,8272017,7114124,2944875,6557952,2,2,2,2
2025-09-03 13:06:59.084,8288482,2919837,7139130,4460818,2,2,2,2
2025-09-03 13:06:59.084,4094198,7114222,7139207,6558018,2,2,2,2
2025-09-03 13:06:59.085,8288517,7130623,7139217,2371948,2,2,2,2
2025-09-03 13:06:59.085,8288541,5017116,7139279,6558089,2,2,2,2
2025-09-03 13:06:59.085,8288623,7130701,7139327,2371993,2,2,2,2
2025-09-03 13:06:59.085,8288660,2920080,7139361,6558200,2,2,2,2
2025-09-03 13:06:59.086,4094208,7114486,5042311,6558239,2,2,2,2
2025-09-03 13:06:59.086,4094306,7114262,5042409,6558336,2,2,2,2
2025-09-03 13:06:59.086,8288704,5017206,7139335,6558366,2,2,2,2
2025-09-03 13:06:59.086,8288671,7130766,7139428,2372343,2,2,2,2
2025-09-03 13:06:59.087,8272368,7114397,7139443,6558210,2,2,2,2
2025-09-03 13:06:59.087,8272377,7114467,2945145,6558211,2,2,2,2
2025-09-03 13:06:59.087,8288753,5017243,7139440,6558453,2,2,2,2
2025-09-03 13:06:59.088,8288745,7130830,7139427,6558440,2,2,2,2
2025-09-03 13:06:59.088,8288743,7130827,7139359,6558367,2,2,2,2
2025-09-03 13:06:59.088,8272325,7114376,2945050,6558360,2,2,2,2
2025-09-03 13:06:59.089,8288715,2920052,7139335,6558334,2,2,2,2
2025-09-03 13:06:59.089,8288714,5017209,7139337,6558334,2,2,2,2
2025-09-03 13:06:59.089,8288670,7130825,7139351,2364045,2,2,2,2
2025-09-03 13:06:59.089,8272369,7114393,2945128,6558365,2,2,2,2
2025-09-03 13:06:59.090,4078079,7114471,2945144,6558442,2,2,2,2
2025-09-03 13:06:59.090,8288786,7130871,7139468,2364157,2,2,2,2
2025-09-03 13:06:59.090,8272500,7114513,2945260,6558228,2,2,2,2
2025-09-03 13:06:59.090,8288912,2920297,7139594,6558314,2,2,2,2
2025-09-03 13:06:59.091,8288991,7114611,7139605,6558325,2,2,2,2
2025-09-03 13:06:59.091,8289009,7114622,7139685,6558335,2,2,2,2
2025-09-03 13:06:59.091,8289019,7131014,7139695,2372227,2,2,2,2
2025-09-03 13:06:59.092,8288780,2920345,7139647,4461200,2,2,2,2
2025-09-03 13:06:59.092,8288793,2920424,7139784,4461207,2,2,2,2
2025-09-03 13:06:59.092,4094581,7114501,5042662,6558449,2,2,2,2
2025-09-03 13:06:59.092,8288974,5017370,7139838,6558470,2,2,2,2
2025-09-03 13:06:59.093,8272626,7114619,2945309,6558500,2,2,2,2
2025-09-03 13:06:59.093,8272643,7114633,2945388,6558516,2,2,2,2
2025-09-03 13:06:59.093,8289046,2920341,7139639,4461439,2,2,2,2
2025-09-03 13:06:59.093,4094825,7114724,5042565,6558605,2,2,2,2
2025-09-03 13:06:59.094,8289064,5017569,7139781,6558603,2,2,2,2
2025-09-03 13:06:59.094,8289056,5017490,7139646,6558594,2,2,2,2
2025-09-03 13:06:59.094,8289054,7131059,7139709,2364286,2,2,2,2
2025-09-03 13:06:59.094,4094830,7114721,7139719,6558600,2,2,2,2
2025-09-03 13:06:59.095,4094847,7114736,2945428,6558677,2,2,2,2
2025-09-03 13:06:59.095,4094856,7114743,2945433,6558682,2,2,2,2
2025-09-03 13:06:59.095,8289238,5017605,7139814,6558689,2,2,2,2
2025-09-03 13:06:59.095,8289267,2920546,7139841,6558711,2,2,2,2
2025-09-03 13:06:59.096,8289275,7114857,7139851,6558714,2,2,2,2
2025-09-03 13:06:59.096,8289029,7114863,7139859,6558465,2,2,2,2
2025-09-03 13:06:59.096,8289279,7131202,7139843,2372591,2,2,2,2
2025-09-03 13:06:59.097,4094726,7114790,7139843,6558703,2,2,2,2
2025-09-03 13:06:59.097,4094743,7114807,7139857,6558717,2,2,2,2
2025-09-03 13:06:59.097,8272670,7114877,7139866,6558719,2,2,2,2
2025-09-03 13:06:59.097,8289053,5017720,7139901,6558716,2,2,2,2
2025-09-03 13:06:59.098,8272665,7114863,2945559,6558707,2,2,2,2
2025-09-03 13:06:59.098,8272669,7114866,2945565,6558709,2,2,2,2
2025-09-03 13:06:59.098,8289120,2928758,7139874,4461561,2,2,2,2
2025-09-03 13:06:59.099,8289150,7131279,7139967,2372373,2,2,2,2
2025-09-03 13:06:59.099,8289168,7131329,7139984,2372454,2,2,2,2
2025-09-03 13:06:59.099,8289177,7131336,7139993,2364267,2,2,2,2
2025-09-03 13:06:59.099,8272840,7114993,2945764,6558519,2,2,2,2
2025-09-03 13:06:59.100,4094956,7114997,2945765,6558518,2,2,2,2
2025-09-03 13:06:59.100,4094964,7114752,5042924,6558523,2,2,2,2
2025-09-03 13:06:59.100,8289282,5017612,7140093,6558598,2,2,2,2
2025-09-03 13:06:59.100,8289310,2920549,7139865,6558622,2,2,2,2
2025-09-03 13:06:59.101,8289412,2928774,7139898,2364416,2,2,2,2
2025-09-03 13:06:59.101,8289514,2928876,7140060,2364513,2,2,2,2
2025-09-03 13:06:59.101,4078692,7115035,2945803,6558926,2,2,2,2
2025-09-03 13:06:59.102,4095096,7115055,7140194,6558945,2,2,2,2
2025-09-03 13:06:59.102,4095110,7115068,7140207,6558956,2,2,2,2
2025-09-03 13:06:59.102,4095121,7115208,5043065,6558964,2,2,2,2
2025-09-03 13:06:59.102,8289509,7115165,7140239,6558730,2,2,2,2
2025-09-03 13:06:59.103,8273141,7115238,2945944,6558741,2,2,2,2
2025-09-03 13:06:59.103,8289537,2920944,7140322,6558746,2,2,2,2
2025-09-03 13:06:59.103,8289560,2920712,7140344,4461678,2,2,2,2
2025-09-03 13:06:59.103,4095358,7115047,5042969,6558863,2,2,2,2
2025-09-03 13:06:59.104,8289763,7131530,7140221,2372846,2,2,2,2
2025-09-03 13:06:59.104,8289540,7131622,7140253,2372877,2,2,2,2
2025-09-03 13:06:59.104,8289560,7131640,7140339,2364768,2,2,2,2
2025-09-03 13:06:59.104,8273274,7115294,2946074,6559172,2,2,2,2
2025-09-03 13:06:59.105,4095379,7115319,5043317,6559195,2,2,2,2
2025-09-03 13:06:59.105,4095462,7115466,5043335,6559209,2,2,2,2
2025-09-03 13:06:59.105,8289779,5018256,7140564,6559216,2,2,2,2
2025-09-03 13:06:59.105,8289798,7131845,7140579,2364926,2,2,2,2
2025-09-03 13:06:59.106,8289810,2929393,7140588,2364672,2,2,2,2
2025-09-03 13:06:59.106,8289822,2929398,7140596,4461831,2,2,2,2
2025-09-03 13:06:59.106,4079245,7115295,2946147,6559023,2,2,2,2
2025-09-03 13:06:59.107,4095639,7115305,7140461,6559099,2,2,2,2
2025-09-03 13:06:59.107,4095639,7115307,7140460,6559098,2,2,2,2
2025-09-03 13:06:59.107,8273620,7115367,7140455,6559096,2,2,2,2
2025-09-03 13:06:59.108,8290034,2921091,7140548,6559116,2,2,2,2
2025-09-03 13:06:59.108,8273648,7115392,2946177,6559173,2,2,2,2
2025-09-03 13:06:59.108,8289793,2921101,7140560,4461970,2,2,2,2
2025-09-03 13:06:59.108,8273421,7115413,7140502,6559133,2,2,2,2
2025-09-03 13:06:59.109,8289816,7131800,7140511,2373091,2,2,2,2
2025-09-03 13:06:59.109,8289895,7131876,7140591,2373102,2,2,2,2
2025-09-03 13:06:59.109,8273516,7115497,2946291,6559217,2,2,2,2
2025-09-03 13:06:59.109,8289912,2921203,7140606,4462070,2,2,2,2
2025-09-03 13:06:59.110,4095633,7115529,5043478,6559240,2,2,2,2
2025-09-03 13:06:59.110,4095726,7115554,5043565,6559266,2,2,2,2
2025-09-03 13:06:59.110,8290044,5018481,7140730,6559344,2,2,2,2
2025-09-03 13:06:59.110,8273678,7115648,2946444,6559294,2,2,2,2
2025-09-03 13:06:59.111,8290151,2929561,7140835,2365078,2,2,2,2
2025-09-03 13:06:59.111,8290170,2929641,7140852,4462310,2,2,2,2
2025-09-03 13:06:59.111,4095897,7115528,5043477,6559235,2,2,2,2
2025-09-03 13:06:59.111,8290292,5018471,7140725,6559329,2,2,2,2
2025-09-03 13:06:59.112,8273665,7115635,2946432,6559272,2,2,2,2
2025-09-03 13:06:59.112,4095763,7132098,7140758,6559347,2,2,2,2
2025-09-03 13:06:59.112,8290144,2929548,7140834,4462206,2,2,2,2
2025-09-03 13:06:59.112,4095849,7115735,5043691,6559365,2,2,2,2
2025-09-03 13:06:59.113,8290096,2921373,7140848,6559367,2,2,2,2
2025-09-03 13:06:59.113,8290110,2921442,7140855,6559369,2,2,2,2
2025-09-03 13:06:59.113,8290187,7132136,7140859,6559375,2,2,2,2
2025-09-03 13:06:59.113,8273878,7115758,2946564,6559380,2,2,2,2
2025-09-03 13:06:59.114,4095978,7115775,2946580,6559453,2,2,2,2
2025-09-03 13:06:59.114,4096007,7115800,2946670,6559477,2,2,2,2
2025-09-03 13:06:59.114,8290331,2921580,7141056,6559495,2,2,2,2
2025-09-03 13:06:59.114,8290429,2921614,7141087,4462438,2,2,2,2
2025-09-03 13:06:59.115,8290514,7116003,7141109,6559609,2,2,2,2
2025-09-03 13:06:59.115,8290528,7116018,7140864,6559621,2,2,2,2
2025-09-03 13:06:59.115,8290552,7132169,7140891,2373527,2,2,2,2
2025-09-03 13:06:59.115,8306710,7115881,2946680,6559727,2,2,2,2
2025-09-03 13:06:59.116,4096119,7115976,7141013,6559497,2,2,2,2
2025-09-03 13:06:59.116,4096140,7115993,7141099,6559549,2,2,2,2
2025-09-03 13:06:59.116,8290520,7116003,7141110,6559591,2,2,2,2
2025-09-03 13:06:59.116,8290458,7132389,7141108,2365288,2,2,2,2
2025-09-03 13:06:59.117,8306880,7116008,2946809,6559532,2,2,2,2
2025-09-03 13:06:59.117,8306883,7116011,2946815,6559533,2,2,2,2
2025-09-03 13:06:59.117,8290546,2929912,7141128,4462456,2,2,2,2
2025-09-03 13:06:59.118,8290662,7132487,7141239,2373600,2,2,2,2
2025-09-03 13:06:59.118,8290678,7132532,7141252,2373613,2,2,2,2
2025-09-03 13:06:59.118,8307063,7116148,2946954,6559726,2,2,2,2
2025-09-03 13:06:59.118,8307074,7116160,2946962,6559735,2,2,2,2
2025-09-03 13:06:59.119,8290779,5019033,7141320,6559760,2,2,2,2
2025-09-03 13:06:59.119,4096491,7116268,2947066,6559778,2,2,2,2
2025-09-03 13:06:59.119,8290790,5019110,7141364,6559770,2,2,2,2
2025-09-03 13:06:59.119,8290714,2921885,7141354,4462603,2,2,2,2
2025-09-03 13:06:59.120,8290781,7116189,7141360,6559743,2,2,2,2
2025-09-03 13:06:59.120,4096499,7116273,2946822,6559762,2,2,2,2
2025-09-03 13:06:59.120,8306960,7116041,2946913,6559789,2,2,2,2
2025-09-03 13:06:59.121,4096278,7116047,7141222,6559856,2,2,2,2
2025-09-03 13:06:59.121,4096271,7116033,7141148,6559811,2,2,2,2
2025-09-03 13:06:59.121,8290585,7116041,7141224,6559847,2,2,2,2
2025-09-03 13:06:59.121,8290598,5018897,7141199,6559857,2,2,2,2
2025-09-03 13:06:59.122,8290670,2921750,7141179,6559865,2,2,2,2
2025-09-03 13:06:59.122,8290674,2921751,7141183,6559869,2,2,2,2
2025-09-03 13:06:59.122,8290695,2930021,7141324,4462727,2,2,2,2
2025-09-03 13:06:59.122,4096406,7116079,5044116,6559887,2,2,2,2
2025-09-03 13:06:59.123,8290797,7132548,7141353,2373788,2,2,2,2
2025-09-03 13:06:59.123,8290834,7132619,7141388,2373887,2,2,2,2
2025-09-03 13:06:59.123,8290928,7132685,7141483,6559773,2,2,2,2
2025-09-03 13:06:59.123,8307325,7116316,2947192,6559851,2,2,2,2
2025-09-03 13:06:59.124,8290864,5019148,7141450,6559771,2,2,2,2
2025-09-03 13:06:59.124,8290850,5019133,7141434,6559752,2,2,2,2
2025-09-03 13:06:59.124,8290851,5019127,7141398,6559745,2,2,2,2
2025-09-03 13:06:59.124,8290933,7132678,7141475,2365460,2,2,2,2
2025-09-03 13:06:59.125,8291045,7132789,7141517,2365559,2,2,2,2
2025-09-03 13:06:59.125,8291043,5019247,7141574,6559855,2,2,2,2
2025-09-03 13:06:59.126,8307398,7116401,2947209,6559854,2,2,2,2
2025-09-03 13:06:59.126,8307398,7116394,2947206,6559788,2,2,2,2
2025-09-03 13:06:59.126,8291043,7116386,7141507,6559849,2,2,2,2
2025-09-03 13:06:59.127,8290818,2922114,7141603,6559876,2,2,2,2
2025-09-03 13:06:59.127,8290836,2922133,7141625,6559895,2,2,2,2
2025-09-03 13:06:59.127,8290917,2930405,7141387,4462823,2,2,2,2
2025-09-03 13:06:59.127,8307257,7116533,7141406,6559989,2,2,2,2
2025-09-03 13:06:59.128,8290957,7132681,7141489,2373895,2,2,2,2
2025-09-03 13:06:59.128,4113132,7116391,2947218,6560039,2,2,2,2
2025-09-03 13:06:59.128,8307461,7116410,2947306,6560062,2,2,2,2
2025-09-03 13:06:59.128,8291078,2930300,7141612,4462973,2,2,2,2
2025-09-03 13:06:59.129,8291079,5019259,7141578,6560116,2,2,2,2
2025-09-03 13:06:59.129,4096780,7116348,2947309,6560049,2,2,2,2
2025-09-03 13:06:59.129,8291085,5019260,7141608,6560104,2,2,2,2
2025-09-03 13:06:59.129,8307468,7116409,2947301,6560037,2,2,2,2
2025-09-03 13:06:59.130,4096882,7116515,2947345,6560199,2,2,2,2
2025-09-03 13:06:59.130,8291274,5019378,7141666,6560155,2,2,2,2
2025-09-03 13:06:59.131,8307634,7116533,2947428,6560156,2,2,2,2
2025-09-03 13:06:59.131,4096915,7116532,7141734,6560155,2,2,2,2
2025-09-03 13:06:59.131,8291292,7116539,7141743,6560228,2,2,2,2
2025-09-03 13:06:59.131,4097006,7116554,5044607,6560243,2,2,2,2
2025-09-03 13:06:59.132,8291073,2922264,7141842,6560003,2,2,2,2
2025-09-03 13:06:59.132,8291097,2922350,7141868,6560020,2,2,2,2
2025-09-03 13:06:59.132,4096885,7116741,7141639,6560106,2,2,2,2
2025-09-03 13:06:59.132,8307658,7116694,7141657,6560126,2,2,2,2
2025-09-03 13:06:59.133,4113308,7116778,2947437,6560207,2,2,2,2
2025-09-03 13:06:59.133,8291310,7132929,7141758,2374044,2,2,2,2
2025-09-03 13:06:59.133,8291334,2922264,7141846,6560238,2,2,2,2
2025-09-03 13:06:59.133,4097050,7116588,7141867,6560260,2,2,2,2
2025-09-03 13:06:59.134,8291388,7116683,7141898,6560352,2,2,2,2
2025-09-03 13:06:59.134,8291556,7116789,7142001,6560388,2,2,2,2
2025-09-03 13:06:59.134,8291328,7133196,7142021,2374294,2,2,2,2
2025-09-03 13:06:59.134,8307723,7116825,2947725,6560475,2,2,2,2
2025-09-03 13:06:59.135,4097124,7116847,5044967,6560460,2,2,2,2
2025-09-03 13:06:59.135,8291387,7116937,7142137,6560511,2,2,2,2
2025-09-03 13:06:59.135,8291483,7133408,7141904,2374165,2,2,2,2
2025-09-03 13:06:59.136,8307964,7117050,2947698,6560305,2,2,2,2
2025-09-03 13:06:59.136,8308027,7116819,2947733,6560460,2,2,2,2
2025-09-03 13:06:59.136,8291703,2930793,7142125,2366180,2,2,2,2
2025-09-03 13:06:59.136,4097422,7116992,5044995,6560505,2,2,2,2
2025-09-03 13:06:59.137,8291813,2922647,7142171,6560526,2,2,2,2
2025-09-03 13:06:59.137,8291818,2922655,7142182,6560530,2,2,2,2
2025-09-03 13:06:59.137,4097531,7117037,7142259,6560542,2,2,2,2
2025-09-03 13:06:59.137,8307985,7117054,7142280,6560623,2,2,2,2
2025-09-03 13:06:59.138,4113767,7117069,2947993,6560705,2,2,2,2
2025-09-03 13:06:59.138,4113783,7117084,2948072,6560721,2,2,2,2
2025-09-03 13:06:59.138,8291783,2922862,7142391,6560737,2,2,2,2
2025-09-03 13:06:59.138,4097417,7133485,7142387,6560667,2,2,2,2
2025-09-03 13:06:59.139,8291781,7117156,7142350,6560655,2,2,2,2
2025-09-03 13:06:59.139,8291782,7117159,7142388,6560656,2,2,2,2
2025-09-03 13:06:59.139,8291738,7133560,7142147,2374624,2,2,2,2
2025-09-03 13:06:59.139,8291741,7133562,7142146,2366367,2,2,2,2
2025-09-03 13:06:59.140,8291809,7117182,7142151,6560737,2,2,2,2
2025-09-03 13:06:59.140,8291827,2931088,7142171,2366452,2,2,2,2
2025-09-03 13:06:59.140,4097542,7117282,5045100,6560514,2,2,2,2
2025-09-03 13:06:59.140,8291859,5020137,7142262,6560520,2,2,2,2
2025-09-03 13:06:59.141,8308274,7117284,2947956,6560515,2,2,2,2
2025-09-03 13:06:59.141,8308293,7117302,2947977,6560533,2,2,2,2
2025-09-03 13:06:59.141,8291962,2930952,7142367,4463459,2,2,2,2
2025-09-03 13:06:59.142,8291984,2922849,7142388,6560630,2,2,2,2
2025-09-03 13:06:59.142,8292058,2922863,7142398,6560641,2,2,2,2
2025-09-03 13:06:59.142,4097767,7117116,7142411,6560650,2,2,2,2
2025-09-03 13:06:59.142,4097774,7117249,5045265,6560655,2,2,2,2
2025-09-03 13:06:59.143,4114163,7117192,2948117,6560720,2,2,2,2
2025-09-03 13:06:59.143,8292088,7133576,7142423,2374543,2,2,2,2
2025-09-03 13:06:59.143,8308470,7117190,2948121,6560721,2,2,2,2
2025-09-03 13:06:59.143,8291845,2922899,7142441,4463518,2,2,2,2
2025-09-03 13:06:59.144,8291878,7117296,7142538,6560761,2,2,2,2
2025-09-03 13:06:59.144,8292037,7117320,7142604,6560786,2,2,2,2
2025-09-03 13:06:59.144,8292079,7133802,7142417,2374774,2,2,2,2
2025-09-03 13:06:59.144,8308510,7117468,2948220,6560993,2,2,2,2
2025-09-03 13:06:59.145,8292221,2931449,7142617,2366713,2,2,2,2
2025-09-03 13:06:59.145,8292240,2931211,7142632,2366469,2,2,2,2
2025-09-03 13:06:59.145,4097944,7117330,5045485,6560777,2,2,2,2
2025-09-03 13:06:59.145,4114408,7117408,2948349,6560789,2,2,2,2
2025-09-03 13:06:59.146,8308735,7117430,2948370,6560812,2,2,2,2
2025-09-03 13:06:59.146,4097815,7117518,7142761,6560898,2,2,2,2
2025-09-03 13:06:59.146,8308513,7117468,7142771,6560907,2,2,2,2
2025-09-03 13:06:59.146,8292141,7117540,7142782,6560917,2,2,2,2
2025-09-03 13:06:59.147,8292290,2923253,7142862,6560995,2,2,2,2
2025-09-03 13:06:59.147,8292319,2923283,7142895,6561021,2,2,2,2
2025-09-03 13:06:59.147,4098029,7133985,7142909,6561033,2,2,2,2
2025-09-03 13:06:59.147,4098041,7117608,5045512,6561073,2,2,2,2
2025-09-03 13:06:59.148,8292368,7134076,7142685,2374943,2,2,2,2
2025-09-03 13:06:59.148,8292451,7134094,7142770,2375028,2,2,2,2
2025-09-03 13:06:59.148,8308852,7117723,2948480,6561220,2,2,2,2
2025-09-03 13:06:59.148,8308924,7117569,2948576,6561251,2,2,2,2
2025-09-03 13:06:59.149,8292600,7117594,7142904,6561273,2,2,2,2
2025-09-03 13:06:59.149,4098059,7117605,5045766,6561031,2,2,2,2
2025-09-03 13:06:59.149,8292376,5020525,7142929,6561042,2,2,2,2
2025-09-03 13:06:59.149,8292381,7134065,7142932,2366744,2,2,2,2
2025-09-03 13:06:59.150,8292481,2931603,7142967,4463989,2,2,2,2
2025-09-03 13:06:59.150,4098188,7117791,5045888,6561083,2,2,2,2
2025-09-03 13:06:59.150,4114661,7117810,2948762,6561235,2,2,2,2
2025-09-03 13:06:59.151,4098305,7117837,7143159,6561261,2,2,2,2
2025-09-03 13:06:59.151,4098400,7117866,7142930,6561286,2,2,2,2
2025-09-03 13:06:59.151,8309043,7117945,7142943,6561299,2,2,2,2
2025-09-03 13:06:59.151,8292817,7117977,7143039,6561392,2,2,2,2
2025-09-03 13:06:59.152,8292825,2923750,7143112,6561405,2,2,2,2
2025-09-03 13:06:59.152,8292835,2923757,7143120,6561412,2,2,2,2
2025-09-03 13:06:59.152,8292856,2923521,7143138,4464278,2,2,2,2
2025-09-03 13:06:59.152,4098327,7117857,7143168,6561520,2,2,2,2
2025-09-03 13:06:59.153,8292711,7134316,7143179,2375417,2,2,2,2
2025-09-03 13:06:59.153,8292728,7134321,7143190,2375422,2,2,2,2
2025-09-03 13:06:59.153,8309107,7117930,2948879,6561523,2,2,2,2
2025-09-03 13:06:59.153,8309106,7117930,2948880,6561517,2,2,2,2
2025-09-03 13:06:59.154,4098418,7117865,5046032,6561513,2,2,2,2
2025-09-03 13:06:59.154,4098427,7117875,5046041,6561523,2,2,2,2
2025-09-03 13:06:59.154,8292669,5020786,7143227,6561522,2,2,2,2
2025-09-03 13:06:59.154,8292801,2923637,7143200,6561524,2,2,2,2
2025-09-03 13:06:59.155,8292761,2931850,7143224,4464135,2,2,2,2
2025-09-03 13:06:59.155,8292835,2931861,7143364,4464138,2,2,2,2
2025-09-03 13:06:59.155,4114930,7118051,2949006,6561297,2,2,2,2
2025-09-03 13:06:59.156,4098561,7134448,7143319,6561303,2,2,2,2
2025-09-03 13:06:59.156,8292876,7134456,7143394,6561377,2,2,2,2
2025-09-03 13:06:59.156,4098678,7118112,5046030,6561417,2,2,2,2
2025-09-03 13:06:59.156,8293079,7118209,7143244,6561511,2,2,2,2
2025-09-03 13:06:59.157,8309475,7118221,2948984,6561520,2,2,2,2
2025-09-03 13:06:59.157,8309484,7118230,2948994,6561527,2,2,2,2
2025-09-03 13:06:59.157,8293105,2923934,7143370,4464381,2,2,2,2
2025-09-03 13:06:59.157,8293116,2932204,7143383,2367240,2,2,2,2
2025-09-03 13:06:59.158,8292870,7134709,7143393,2375439,2,2,2,2
2025-09-03 13:06:59.158,8292892,5020932,7143412,6561632,2,2,2,2
2025-09-03 13:06:59.158,8292984,7134520,7143435,2367347,2,2,2,2
2025-09-03 13:06:59.158,4098705,7118123,7143454,6561667,2,2,2,2
2025-09-03 13:06:59.159,4098793,7118143,5046386,6561752,2,2,2,2
2025-09-03 13:06:59.159,4098815,7118290,5046404,6561771,2,2,2,2
2025-09-03 13:06:59.159,4115209,7118239,2949265,6561779,2,2,2,2
2025-09-03 13:06:59.159,8293126,2923931,7143626,6561772,2,2,2,2
2025-09-03 13:06:59.160,8309515,7118238,7143565,6561776,2,2,2,2
2025-09-03 13:06:59.160,8309513,7118236,7143563,6561770,2,2,2,2
2025-09-03 13:06:59.160,8293134,7118238,7143601,6561769,2,2,2,2
2025-09-03 13:06:59.160,8293149,7134697,7143583,2375663,2,2,2,2
2025-09-03 13:06:59.161,8293145,2923934,7143643,4464615,2,2,2,2
2025-09-03 13:06:59.161,8293221,2924013,7143657,4464629,2,2,2,2
2025-09-03 13:06:59.161,4098935,7118337,7143676,6561541,2,2,2,2
2025-09-03 13:06:59.161,4098959,7118358,5046288,6561562,2,2,2,2
2025-09-03 13:06:59.162,8309652,7118358,2949143,6561564,2,2,2,2
2025-09-03 13:06:59.162,8309731,7118433,2949224,6561574,2,2,2,2
2025-09-03 13:06:59.162,8309757,7118453,2949250,6561592,2,2,2,2
2025-09-03 13:06:59.162,8293120,2932344,7143622,4464505,2,2,2,2
2025-09-03 13:06:59.163,8293374,5021297,7143558,6561652,2,2,2,2
2025-09-03 13:06:59.163,8293373,5021293,7143559,6561647,2,2,2,2
2025-09-03 13:06:59.163,8293125,2924150,7143632,6561654,2,2,2,2
2025-09-03 13:06:59.163,4098829,7118396,7143573,6561656,2,2,2,2
2025-09-03 13:06:59.164,8293240,7134917,7143670,2375579,2,2,2,2
2025-09-03 13:06:59.164,8309648,7118589,2949387,6561775,2,2,2,2
2025-09-03 13:06:59.165,8309731,7118348,7143705,6561785,2,2,2,2
2025-09-03 13:06:59.165,4099072,7118376,5046644,6561843,2,2,2,2
2025-09-03 13:06:59.165,4099089,7118394,5046665,6561823,2,2,2,2
2025-09-03 13:06:59.165,8293412,5021324,7143897,6578288,2,2,2,2
2025-09-03 13:06:59.166,8293499,2924258,7143919,4481154,2,2,2,2
2025-09-03 13:06:59.166,8293522,2924277,7143681,4481173,2,2,2,2
2025-09-03 13:06:59.166,8293534,2932479,7143693,2384028,2,2,2,2
2025-09-03 13:06:59.166,4099312,7118608,5046625,6562029,2,2,2,2
2025-09-03 13:06:59.167,8293621,7135026,7143780,2367730,2,2,2,2
2025-09-03 13:06:59.167,8293382,7135041,7143796,2367743,2,2,2,2
2025-09-03 13:06:59.167,4099102,7118654,7143822,6561815,2,2,2,2
2025-09-03 13:06:59.167,8309812,7118745,7143912,6578291,2,2,2,2
2025-09-03 13:06:59.168,4115606,7118843,2949639,6578385,2,2,2,2
2025-09-03 13:06:59.168,4115692,7118607,2949659,6578403,2,2,2,2
2025-09-03 13:06:59.168,8310006,7118614,2949732,6578410,2,2,2,2
2025-09-03 13:06:59.168,8293615,2924303,7143963,4481182,2,2,2,2
2025-09-03 13:06:59.169,8293620,7118609,7143996,6578331,2,2,2,2
2025-09-03 13:06:59.169,8293660,7135096,7144060,2375925,2,2,2,2
2025-09-03 13:06:59.169,8310120,7118719,2949766,6578428,2,2,2,2
2025-09-03 13:06:59.170,4099443,7118787,7144081,6562051,2,2,2,2
2025-09-03 13:06:59.170,8293761,2932621,7144156,2384137,2,2,2,2
2025-09-03 13:06:59.170,4099462,7118801,5047011,6562062,2,2,2,2
2025-09-03 13:06:59.170,8293851,5021597,7144178,6578528,2,2,2,2
2025-09-03 13:06:59.171,8310260,7118837,2949637,6578487,2,2,2,2
2025-09-03 13:06:59.171,8310269,7135232,2949649,6578624,2,2,2,2
2025-09-03 13:06:59.171,8310032,7135253,7144037,6578575,2,2,2,2
2025-09-03 13:06:59.173,8293826,2941060,7144145,6578683,2,2,2,2
2025-09-03 13:06:59.173,8293777,7135409,7144092,2375944,2,2,2,2
2025-09-03 13:06:59.174,4099473,7135435,7144087,6562052,2,2,2,2
2025-09-03 13:06:59.174,8310243,7135389,7144169,6578454,2,2,2,2
2025-09-03 13:06:59.174,8293888,7135479,7144196,2376047,2,2,2,2
2025-09-03 13:06:59.174,8293913,7135283,7144290,2376067,2,2,2,2
2025-09-03 13:06:59.174,8310390,7135346,2950014,6578652,2,2,2,2
2025-09-03 13:06:59.174,8294040,2941079,7144417,4481530,2,2,2,2
2025-09-03 13:06:59.174,8294136,7135474,7144443,6578708,2,2,2,2
2025-09-03 13:06:59.174,8293899,7135487,7144206,6578786,2,2,2,2
2025-09-03 13:06:59.174,8293921,5038349,7144225,6578802,2,2,2,2
2025-09-03 13:06:59.174,8293999,7135543,7144295,2368121,2,2,2,2
2025-09-03 13:06:59.175,8294019,2933092,7144250,2384522,2,2,2,2
2025-09-03 13:06:59.175,8294033,2933106,7144391,2384534,2,2,2,2
2025-09-03 13:06:59.176,4099733,7135543,5047182,6562521,2,2,2,2
2025-09-03 13:06:59.176,8294089,5038443,7144331,6578830,2,2,2,2
2025-09-03 13:06:59.176,4099707,7135513,7144319,6562427,2,2,2,2
2025-09-03 13:06:59.176,4099697,7135502,7144306,6562410,2,2,2,2
2025-09-03 13:06:59.176,8310322,7135505,7144311,6578795,2,2,2,2
2025-09-03 13:06:59.177,8294085,2941210,7144396,6578809,2,2,2,2
2025-09-03 13:06:59.177,8310382,7135489,2950003,6578718,2,2,2,2
2025-09-03 13:06:59.177,8293986,2941176,7144236,4481552,2,2,2,2
2025-09-03 13:06:59.177,4099704,7135509,5047173,6562376,2,2,2,2
2025-09-03 13:06:59.178,8294039,7135602,7144417,2376326,2,2,2,2
2025-09-03 13:06:59.178,8294143,7135633,7144450,2376426,2,2,2,2
2025-09-03 13:06:59.178,8310638,7135736,2950251,6578703,2,2,2,2
2025-09-03 13:06:59.178,8294292,2941213,7144653,4481648,2,2,2,2
2025-09-03 13:06:59.179,4100082,7135540,5047526,6562504,2,2,2,2
2025-09-03 13:06:59.179,4099862,7135698,5047301,6562535,2,2,2,2
2025-09-03 13:06:59.179,8294192,5038568,7144511,6578943,2,2,2,2
2025-09-03 13:06:59.179,8294281,7135745,7144563,2368272,2,2,2,2
2025-09-03 13:06:59.180,8310740,7135758,7144574,6578972,2,2,2,2
2025-09-03 13:06:59.180,8310756,7135772,7144587,6579049,2,2,2,2
2025-09-03 13:06:59.180,4116478,7135863,2950372,6579005,2,2,2,2
2025-09-03 13:06:59.181,4100102,7135806,7144683,6562688,2,2,2,2
2025-09-03 13:06:59.181,4100120,7135952,7144696,6562695,2,2,2,2
2025-09-03 13:06:59.181,8310816,7135892,7144703,6579082,2,2,2,2
2025-09-03 13:06:59.182,8310896,7135970,2950419,6579167,2,2,2,2
2025-09-03 13:06:59.182,8310908,7135981,2950428,6579177,2,2,2,2
2025-09-03 13:06:59.182,8294545,2941689,7144748,4482038,2,2,2,2
2025-09-03 13:06:59.182,4100323,7135751,5047678,6562563,2,2,2,2
2025-09-03 13:06:59.183,8294646,5038620,7144911,6578964,2,2,2,2
2025-09-03 13:06:59.183,8294401,5038701,7144925,6578975,2,2,2,2
2025-09-03 13:06:59.183,8294419,7135863,7144939,2368362,2,2,2,2
2025-09-03 13:06:59.183,8310859,7135878,2950650,6578998,2,2,2,2
2025-09-03 13:06:59.184,4108403,7135942,5047801,6562614,2,2,2,2
2025-09-03 13:06:59.184,4116606,7135886,2950406,6579006,2,2,2,2
2025-09-03 13:06:59.184,8294546,7135941,7144733,2368401,2,2,2,2
2025-09-03 13:06:59.185,8311019,7136000,7144826,6579176,2,2,2,2
2025-09-03 13:06:59.185,8311055,7136101,7144929,6579214,2,2,2,2
2025-09-03 13:06:59.185,4116871,7136142,2950680,6579261,2,2,2,2
2025-09-03 13:06:59.186,8294807,2933729,7144999,4482188,2,2,2,2
2025-09-03 13:06:59.186,8294807,2941927,7145001,4482189,2,2,2,2
2025-09-03 13:06:59.186,4100496,7136228,5047908,6562946,2,2,2,2
2025-09-03 13:06:59.186,8294869,7136232,7145029,6579326,2,2,2,2
2025-09-03 13:06:59.187,8311191,7136235,2950759,6579258,2,2,2,2
2025-09-03 13:06:59.187,8294802,7136195,7145056,2368625,2,2,2,2
2025-09-03 13:06:59.187,8311222,7136159,2950686,6579246,2,2,2,2
2025-09-03 13:06:59.187,8294891,2933743,7145003,2385021,2,2,2,2
2025-09-03 13:06:59.188,8294906,5039101,7145018,6579335,2,2,2,2
2025-09-03 13:06:59.188,8294680,5038870,7145140,6579424,2,2,2,2
2025-09-03 13:06:59.188,8294760,7136065,7145188,2368749,2,2,2,2
2025-09-03 13:06:59.188,8311155,7136108,2950891,6579445,2,2,2,2
2025-09-03 13:06:59.189,4116889,7136131,2950669,6579219,2,2,2,2
2025-09-03 13:06:59.189,8294889,2941844,7144987,6579230,2,2,2,2
2025-09-03 13:06:59.190,4100591,7136216,5047839,6562878,2,2,2,2
2025-09-03 13:06:59.190,4100599,7136220,5047909,6562881,2,2,2,2
2025-09-03 13:06:59.190,8294915,7136232,7145073,6579306,2,2,2,2
2025-09-03 13:06:59.190,8294912,7136228,7145075,2376809,2,2,2,2
2025-09-03 13:06:59.191,8311291,7136226,2950768,6579237,2,2,2,2
2025-09-03 13:06:59.191,8294918,2941931,7145022,4482156,2,2,2,2
2025-09-03 13:06:59.191,4100709,7136263,7145113,6562949,2,2,2,2
2025-09-03 13:06:59.191,4108928,7136287,5048046,6563034,2,2,2,2
2025-09-03 13:06:59.192,8295124,5039218,7145215,6579433,2,2,2,2
2025-09-03 13:06:59.192,8295158,7136432,7145242,2368769,2,2,2,2
2025-09-03 13:06:59.192,8311310,7136483,2951024,6579479,2,2,2,2
