Timestamp,Ch1,Ch2,Ch3,Ch4,Ch5,Ch6,Ch7,Ch8
2025-08-21 11:55:16.832,-394033,-425376,-427504,-431840,2,2,2,2
2025-08-21 11:55:16.833,-393998,-425441,-427500,-431773,2,2,2,2
2025-08-21 11:55:16.834,-393996,-425437,-427501,-448188,2,2,2,2
2025-08-21 11:55:16.834,-393975,-425416,-427417,-431814,2,2,2,2
2025-08-21 11:55:16.835,-393961,-425337,-427468,-431735,2,2,2,2
2025-08-21 11:55:16.836,-393954,-408883,-427399,-448116,2,2,2,2
2025-08-21 11:55:16.837,-393913,-425324,-443775,-431726,2,2,2,2
2025-08-21 11:55:16.837,-393962,-425274,-427400,-431680,2,2,2,2
2025-08-21 11:55:16.838,-393971,-425348,-443855,-431749,2,2,2,2
2025-08-21 11:55:16.839,-393981,-425359,-427482,-431761,2,2,2,2
2025-08-21 11:55:16.840,-393991,-425432,-427491,-448156,2,2,2,2
2025-08-21 11:55:16.841,-394001,-425374,-443882,-431842,2,2,2,2
2025-08-21 11:55:16.842,-394097,-425471,-427271,-431874,2,2,2,2
2025-08-21 11:55:16.843,-394182,-425490,-427288,-431893,2,2,2,2
2025-08-21 11:55:16.843,-394127,-425500,-427361,-448354,2,2,2,2
2025-08-21 11:55:16.844,-394195,-425569,-443745,-431971,2,2,2,2
2025-08-21 11:55:16.845,-394191,-425502,-443706,-431901,2,2,2,2
2025-08-21 11:55:16.846,-394124,-409114,-427287,-440088,2,2,2,2
2025-08-21 11:55:16.846,-394133,-425571,-427294,-431904,2,2,2,2
2025-08-21 11:55:16.847,-394177,-425581,-427370,-431914,2,2,2,2
2025-08-21 11:55:16.848,-394219,-425528,-427382,-448373,2,2,2,2
2025-08-21 11:55:16.849,-394218,-425590,-443769,-431988,2,2,2,2
2025-08-21 11:55:16.850,-394226,-409215,-427393,-440190,2,2,2,2
2025-08-21 11:55:16.851,-394217,-425594,-427383,-431926,2,2,2,2
2025-08-21 11:55:16.852,-394188,-425594,-427382,-431924,2,2,2,2
2025-08-21 11:55:16.852,-394234,-425607,-427459,-432004,2,2,2,2
2025-08-21 11:55:16.853,-394232,-425668,-427390,-448390,2,2,2,2
2025-08-21 11:55:16.854,-394217,-425588,-443761,-431987,2,2,2,2
2025-08-21 11:55:16.855,-394214,-409204,-427375,-440174,2,2,2,2
2025-08-21 11:55:16.856,-394209,-425589,-427373,-431917,2,2,2,2
2025-08-21 11:55:16.856,-394126,-425573,-427293,-431902,2,2,2,2
2025-08-21 11:55:16.857,-394125,-425507,-427362,-448288,2,2,2,2
2025-08-21 11:55:16.858,-394184,-425502,-443679,-431899,2,2,2,2
2025-08-21 11:55:16.859,-394116,-425500,-427292,-431898,2,2,2,2
2025-08-21 11:55:16.859,-394119,-425572,-427361,-431904,2,2,2,2
2025-08-21 11:55:16.859,-394121,-425579,-427299,-431970,2,2,2,2
2025-08-21 11:55:16.859,-394117,-425509,-427296,-448285,2,2,2,2
2025-08-21 11:55:16.860,-394177,-425572,-427293,-431898,2,2,2,2
2025-08-21 11:55:16.860,-394121,-409156,-427364,-440092,2,2,2,2
2025-08-21 11:55:16.860,-394120,-409117,-427293,-448282,2,2,2,2
2025-08-21 11:55:16.861,-394181,-425497,-443677,-431897,2,2,2,2
2025-08-21 11:55:16.861,-394120,-409115,-427294,-440093,2,2,2,2
2025-08-21 11:55:16.861,-394120,-425502,-427296,-431902,2,2,2,2
2025-08-21 11:55:16.862,-394177,-425496,-443674,-431897,2,2,2,2
2025-08-21 11:55:16.862,-394090,-409087,-427520,-448260,2,2,2,2
2025-08-21 11:55:16.862,-394001,-425446,-443879,-431853,2,2,2,2
2025-08-21 11:55:16.863,-393980,-425361,-443790,-431766,2,2,2,2
2025-08-21 11:55:16.863,-393878,-425321,-427373,-431663,2,2,2,2
2025-08-21 11:55:16.863,-393867,-425251,-427365,-448100,2,2,2,2
2025-08-21 11:55:16.863,-393837,-425226,-427274,-448007,2,2,2,2
2025-08-21 11:55:16.864,-393762,-425470,-443647,-431872,2,2,2,2
2025-08-21 11:55:16.864,-393849,-425234,-427280,-431639,2,2,2,2
2025-08-21 11:55:16.864,-393848,-425238,-427281,-431639,2,2,2,2
2025-08-21 11:55:16.865,-393858,-425242,-427286,-431643,2,2,2,2
2025-08-21 11:55:16.865,-393861,-425243,-427289,-448060,2,2,2,2
2025-08-21 11:55:16.865,-393861,-408855,-427289,-439831,2,2,2,2
2025-08-21 11:55:16.866,-393844,-408835,-427272,-439813,2,2,2,2
2025-08-21 11:55:16.866,-393840,-425466,-427263,-431617,2,2,2,2
2025-08-21 11:55:16.866,-393843,-425467,-427264,-431871,2,2,2,2
2025-08-21 11:55:16.866,-393841,-425463,-427265,-448252,2,2,2,2
2025-08-21 11:55:16.867,-393858,-425226,-427290,-448016,2,2,2,2
2025-08-21 11:55:16.867,-393937,-425244,-443726,-431716,2,2,2,2
2025-08-21 11:55:16.867,-393870,-408888,-427369,-439905,2,2,2,2
2025-08-21 11:55:16.868,-393870,-425240,-443747,-431644,2,2,2,2
2025-08-21 11:55:16.868,-393866,-425236,-427291,-431632,2,2,2,2
2025-08-21 11:55:16.868,-393860,-425233,-427287,-448014,2,2,2,2
2025-08-21 11:55:16.869,-393939,-425315,-443718,-431648,2,2,2,2
2025-08-21 11:55:16.869,-393869,-408893,-427290,-448025,2,2,2,2
2025-08-21 11:55:16.869,-393871,-408895,-427295,-448027,2,2,2,2
2025-08-21 11:55:16.870,-393869,-425245,-427294,-431643,2,2,2,2
2025-08-21 11:55:16.870,-393851,-425227,-427277,-431626,2,2,2,2
2025-08-21 11:55:16.870,-393786,-425220,-443659,-431623,2,2,2,2
2025-08-21 11:55:16.871,-393785,-425472,-443654,-431621,2,2,2,2
2025-08-21 11:55:16.871,-393855,-408841,-427279,-439822,2,2,2,2
2025-08-21 11:55:16.871,-393862,-425232,-427288,-431639,2,2,2,2
2025-08-21 11:55:16.871,-393854,-425227,-427278,-431631,2,2,2,2
2025-08-21 11:55:16.871,-393924,-425239,-443667,-431641,2,2,2,2
2025-08-21 11:55:16.872,-393867,-425248,-443675,-431713,2,2,2,2
2025-08-21 11:55:16.872,-393871,-425316,-443679,-431714,2,2,2,2
2025-08-21 11:55:16.872,-393848,-425240,-427279,-448013,2,2,2,2
2025-08-21 11:55:16.872,-393831,-425224,-427265,-431869,2,2,2,2
2025-08-21 11:55:16.872,-393751,-425464,-427249,-431852,2,2,2,2
2025-08-21 11:55:16.873,-393739,-425453,-427236,-431840,2,2,2,2
2025-08-21 11:55:16.873,-393976,-425370,-443534,-431756,2,2,2,2
2025-08-21 11:55:16.873,-393958,-425350,-427131,-431674,2,2,2,2
2025-08-21 11:55:16.873,-393881,-425336,-427119,-431662,2,2,2,2
2025-08-21 11:55:16.873,-393939,-425330,-427048,-431723,2,2,2,2
2025-08-21 11:55:16.873,-393875,-425325,-427045,-431722,2,2,2,2
2025-08-21 11:55:16.873,-393940,-425325,-443460,-431722,2,2,2,2
2025-08-21 11:55:16.874,-393958,-425342,-443510,-431743,2,2,2,2
2025-08-21 11:55:16.874,-393984,-408984,-427153,-439961,2,2,2,2
2025-08-21 11:55:16.874,-393737,-425376,-427162,-431842,2,2,2,2
2025-08-21 11:55:16.874,-393743,-425438,-427167,-448197,2,2,2,2
2025-08-21 11:55:16.874,-393751,-409063,-427241,-448240,2,2,2,2
2025-08-21 11:55:16.875,-393768,-425462,-443642,-431872,2,2,2,2
2025-08-21 11:55:16.875,-393779,-425217,-443654,-431625,2,2,2,2
2025-08-21 11:55:16.875,-393856,-425231,-427287,-431640,2,2,2,2
2025-08-21 11:55:16.875,-393869,-425240,-427361,-431648,2,2,2,2
2025-08-21 11:55:16.875,-393862,-425232,-443679,-431644,2,2,2,2
2025-08-21 11:55:16.875,-393857,-425226,-427291,-448056,2,2,2,2
2025-08-21 11:55:16.875,-393852,-408837,-427286,-439829,2,2,2,2
2025-08-21 11:55:16.876,-393858,-408843,-427296,-439838,2,2,2,2
2025-08-21 11:55:16.876,-393876,-408887,-427373,-448102,2,2,2,2
2025-08-21 11:55:16.876,-393910,-425241,-427372,-431652,2,2,2,2
2025-08-21 11:55:16.876,-393877,-425243,-427371,-448040,2,2,2,2
2025-08-21 11:55:16.876,-393852,-425222,-427284,-448014,2,2,2,2
2025-08-21 11:55:16.876,-393759,-425452,-443642,-431861,2,2,2,2
2025-08-21 11:55:16.877,-393748,-409025,-427246,-440038,2,2,2,2
2025-08-21 11:55:16.877,-393749,-425376,-443628,-431849,2,2,2,2
2025-08-21 11:55:16.877,-393755,-425445,-443630,-431858,2,2,2,2
2025-08-21 11:55:16.877,-393750,-425443,-427247,-431852,2,2,2,2
2025-08-21 11:55:16.877,-393755,-409065,-427253,-448238,2,2,2,2
2025-08-21 11:55:16.878,-393830,-425465,-427265,-431861,2,2,2,2
2025-08-21 11:55:16.878,-393842,-425220,-443660,-431870,2,2,2,2
2025-08-21 11:55:16.878,-393873,-425242,-427366,-431644,2,2,2,2
2025-08-21 11:55:16.878,-393938,-425242,-443686,-431642,2,2,2,2
2025-08-21 11:55:16.878,-393874,-425245,-427302,-431645,2,2,2,2
2025-08-21 11:55:16.878,-393865,-425235,-427361,-448025,2,2,2,2
2025-08-21 11:55:16.879,-393791,-425225,-443702,-431635,2,2,2,2
2025-08-21 11:55:16.879,-393859,-425223,-427284,-431630,2,2,2,2
2025-08-21 11:55:16.879,-393787,-425217,-427280,-431625,2,2,2,2
2025-08-21 11:55:16.879,-393834,-425462,-427268,-448255,2,2,2,2
2025-08-21 11:55:16.879,-393835,-425457,-427263,-448252,2,2,2,2
2025-08-21 11:55:16.880,-393763,-425449,-443637,-431865,2,2,2,2
2025-08-21 11:55:16.880,-393760,-409063,-427251,-440053,2,2,2,2
2025-08-21 11:55:16.880,-393791,-425450,-427250,-431861,2,2,2,2
2025-08-21 11:55:16.880,-393837,-425466,-427263,-431871,2,2,2,2
2025-08-21 11:55:16.880,-393834,-425462,-427256,-431868,2,2,2,2
2025-08-21 11:55:16.880,-393826,-425456,-427250,-448244,2,2,2,2
2025-08-21 11:55:16.881,-393830,-409073,-427250,-440060,2,2,2,2
2025-08-21 11:55:16.881,-393829,-425456,-427247,-431868,2,2,2,2
2025-08-21 11:55:16.881,-393805,-425467,-427255,-431618,2,2,2,2
2025-08-21 11:55:16.881,-393848,-425218,-427268,-431628,2,2,2,2
2025-08-21 11:55:16.881,-393845,-425219,-427269,-431628,2,2,2,2
2025-08-21 11:55:16.881,-393777,-425218,-443649,-431625,2,2,2,2
2025-08-21 11:55:16.882,-393774,-425467,-443647,-431623,2,2,2,2
2025-08-21 11:55:16.882,-393832,-409075,-427260,-448255,2,2,2,2
2025-08-21 11:55:16.882,-393761,-425451,-443638,-431867,2,2,2,2
2025-08-21 11:55:16.882,-393753,-425444,-427246,-431859,2,2,2,2
2025-08-21 11:55:16.882,-393740,-425430,-427164,-448226,2,2,2,2
2025-08-21 11:55:16.882,-393964,-425334,-443511,-431752,2,2,2,2
2025-08-21 11:55:16.883,-393887,-425258,-427111,-448123,2,2,2,2
2025-08-21 11:55:16.883,-393881,-425254,-427110,-448116,2,2,2,2
2025-08-21 11:55:16.883,-393937,-425246,-443489,-431721,2,2,2,2
2025-08-21 11:55:16.883,-393842,-425212,-427264,-431627,2,2,2,2
2025-08-21 11:55:16.883,-393774,-425204,-443639,-431620,2,2,2,2
2025-08-21 11:55:16.883,-393839,-408820,-427254,-448007,2,2,2,2
2025-08-21 11:55:16.884,-393845,-425212,-443646,-431632,2,2,2,2
2025-08-21 11:55:16.884,-393844,-408831,-427261,-439823,2,2,2,2
2025-08-21 11:55:16.884,-393834,-408823,-427249,-431619,2,2,2,2
2025-08-21 11:55:16.884,-393757,-425198,-427237,-431607,2,2,2,2
2025-08-21 11:55:16.884,-393754,-425193,-427230,-431604,2,2,2,2
2025-08-21 11:55:16.884,-393759,-425198,-427234,-447992,2,2,2,2
2025-08-21 11:55:16.885,-393760,-425198,-427235,-447992,2,2,2,2
2025-08-21 11:55:16.885,-393766,-425209,-443594,-431613,2,2,2,2
2025-08-21 11:55:16.885,-393834,-408829,-427249,-439813,2,2,2,2
2025-08-21 11:55:16.885,-393845,-425225,-427009,-431633,2,2,2,2
2025-08-21 11:55:16.885,-393853,-425234,-427022,-431642,2,2,2,2
2025-08-21 11:55:16.885,-393852,-425233,-427017,-448053,2,2,2,2
2025-08-21 11:55:16.886,-393791,-425235,-443398,-431636,2,2,2,2
2025-08-21 11:55:16.886,-393845,-408842,-427261,-448009,2,2,2,2
2025-08-21 11:55:16.886,-393845,-408837,-427261,-448006,2,2,2,2
2025-08-21 11:55:16.886,-393802,-425209,-427252,-431613,2,2,2,2
2025-08-21 11:55:16.886,-393827,-425200,-427249,-431605,2,2,2,2
2025-08-21 11:55:16.886,-393783,-425220,-443400,-431625,2,2,2,2
2025-08-21 11:55:16.887,-393925,-425237,-443446,-431641,2,2,2,2
2025-08-21 11:55:16.887,-393865,-408891,-427030,-439835,2,2,2,2
2025-08-21 11:55:16.887,-393866,-425243,-427027,-431645,2,2,2,2
2025-08-21 11:55:16.887,-393868,-425236,-427030,-431642,2,2,2,2
2025-08-21 11:55:16.887,-393788,-425220,-443401,-431627,2,2,2,2
2025-08-21 11:55:16.887,-393849,-425214,-427012,-448004,2,2,2,2
2025-08-21 11:55:16.888,-393841,-425209,-443646,-431613,2,2,2,2
2025-08-21 11:55:16.888,-393842,-425212,-427264,-431617,2,2,2,2
2025-08-21 11:55:16.888,-393850,-425220,-427022,-448012,2,2,2,2
2025-08-21 11:55:16.889,-393844,-425221,-427019,-431628,2,2,2,2
2025-08-21 11:55:16.889,-393790,-425231,-427033,-431638,2,2,2,2
2025-08-21 11:55:16.889,-393863,-425244,-427105,-448029,2,2,2,2
2025-08-21 11:55:16.889,-393787,-425234,-443417,-431638,2,2,2,2
2025-08-21 11:55:16.889,-393845,-408840,-427026,-439825,2,2,2,2
2025-08-21 11:55:16.889,-393843,-408837,-427024,-439824,2,2,2,2
2025-08-21 11:55:16.890,-393790,-425235,-427035,-431644,2,2,2,2
2025-08-21 11:55:16.890,-393880,-425325,-427062,-431732,2,2,2,2
2025-08-21 11:55:16.890,-393975,-425355,-443574,-431769,2,2,2,2
2025-08-21 11:55:16.890,-393741,-425441,-443628,-431858,2,2,2,2
2025-08-21 11:55:16.891,-393752,-409070,-427255,-440064,2,2,2,2
2025-08-21 11:55:16.891,-393827,-409081,-427268,-439819,2,2,2,2
2025-08-21 11:55:16.891,-393829,-425471,-427269,-431632,2,2,2,2
2025-08-21 11:55:16.891,-393841,-425226,-427280,-431641,2,2,2,2
2025-08-21 11:55:16.891,-393847,-425231,-427286,-448060,2,2,2,2
2025-08-21 11:55:16.891,-393858,-425240,-427295,-431654,2,2,2,2
2025-08-21 11:55:16.892,-393871,-425317,-427370,-431662,2,2,2,2
2025-08-21 11:55:16.892,-393888,-425330,-427385,-431677,2,2,2,2
2025-08-21 11:55:16.892,-393956,-425333,-427320,-431742,2,2,2,2
2025-08-21 11:55:16.892,-393973,-425348,-443849,-431756,2,2,2,2
2025-08-21 11:55:16.892,-393969,-425345,-443847,-431749,2,2,2,2
2025-08-21 11:55:16.892,-393975,-408969,-427405,-448137,2,2,2,2
2025-08-21 11:55:16.893,-393977,-425413,-427403,-448136,2,2,2,2
2025-08-21 11:55:16.893,-393953,-425264,-427379,-448051,2,2,2,2
2025-08-21 11:55:16.893,-393954,-425328,-427379,-431669,2,2,2,2
2025-08-21 11:55:16.893,-393952,-425326,-427311,-431729,2,2,2,2
2025-08-21 11:55:16.893,-393958,-425332,-443764,-431734,2,2,2,2
2025-08-21 11:55:16.894,-393965,-425342,-443775,-431744,2,2,2,2
2025-08-21 11:55:16.894,-393952,-425338,-443772,-431740,2,2,2,2
2025-08-21 11:55:16.894,-393883,-408948,-427387,-439929,2,2,2,2
2025-08-21 11:55:16.894,-393954,-425337,-427325,-431739,2,2,2,2
2025-08-21 11:55:16.894,-393970,-425353,-427470,-431754,2,2,2,2
2025-08-21 11:55:16.894,-393973,-425420,-427412,-448178,2,2,2,2
2025-08-21 11:55:16.895,-393953,-425335,-443776,-431743,2,2,2,2
2025-08-21 11:55:16.895,-393956,-425337,-427396,-431680,2,2,2,2
2025-08-21 11:55:16.895,-393888,-425337,-427398,-431809,2,2,2,2
2025-08-21 11:55:16.895,-393923,-425341,-427400,-431811,2,2,2,2
2025-08-21 11:55:16.895,-393961,-425280,-427401,-448132,2,2,2,2
2025-08-21 11:55:16.895,-393963,-425343,-443782,-431748,2,2,2,2
2025-08-21 11:55:16.895,-393946,-425325,-443764,-431730,2,2,2,2
2025-08-21 11:55:16.896,-393872,-408863,-427367,-439912,2,2,2,2
2025-08-21 11:55:16.896,-393865,-425241,-427361,-431647,2,2,2,2
2025-08-21 11:55:16.896,-393868,-425244,-427365,-448064,2,2,2,2
2025-08-21 11:55:16.896,-393878,-425320,-427310,-431724,2,2,2,2
2025-08-21 11:55:16.896,-393965,-425409,-427399,-448194,2,2,2,2
2025-08-21 11:55:16.896,-393990,-425371,-443843,-431766,2,2,2,2
2025-08-21 11:55:16.897,-393994,-425372,-427496,-431832,2,2,2,2
2025-08-21 11:55:16.898,-393996,-425441,-427503,-431838,2,2,2,2
2025-08-21 11:55:16.898,-394012,-425455,-427517,-431856,2,2,2,2
2025-08-21 11:55:16.898,-394088,-425464,-427270,-448250,2,2,2,2
2025-08-21 11:55:16.898,-394010,-425451,-427516,-431856,2,2,2,2
2025-08-21 11:55:16.898,-393994,-409028,-427506,-440038,2,2,2,2
2025-08-21 11:55:16.899,-393981,-409052,-427495,-448151,2,2,2,2
2025-08-21 11:55:16.899,-393967,-425357,-427479,-431754,2,2,2,2
2025-08-21 11:55:16.899,-393960,-425411,-427402,-431811,2,2,2,2
2025-08-21 11:55:16.899,-393956,-425339,-443781,-431745,2,2,2,2
2025-08-21 11:55:16.900,-393946,-425328,-443706,-431736,2,2,2,2
2025-08-21 11:55:16.900,-393859,-408887,-427363,-448098,2,2,2,2
2025-08-21 11:55:16.900,-393771,-425470,-443658,-431629,2,2,2,2
2025-08-21 11:55:16.900,-393831,-425463,-427269,-431622,2,2,2,2
2025-08-21 11:55:16.900,-393831,-425457,-427268,-448004,2,2,2,2
2025-08-21 11:55:16.900,-393770,-425459,-443653,-431618,2,2,2,2
2025-08-21 11:55:16.901,-393835,-425463,-427270,-448002,2,2,2,2
2025-08-21 11:55:16.901,-393855,-408845,-427293,-448026,2,2,2,2
2025-08-21 11:55:16.901,-393937,-425246,-443757,-431724,2,2,2,2
2025-08-21 11:55:16.901,-393964,-425334,-427402,-431815,2,2,2,2
2025-08-21 11:55:16.901,-393966,-425334,-443850,-431750,2,2,2,2
2025-08-21 11:55:16.902,-393966,-408884,-427401,-448132,2,2,2,2
2025-08-21 11:55:16.902,-393925,-425325,-443778,-431740,2,2,2,2
2025-08-21 11:55:16.902,-393956,-408944,-427395,-431746,2,2,2,2
2025-08-21 11:55:16.902,-393970,-408953,-427407,-439954,2,2,2,2
2025-08-21 11:55:16.902,-393969,-425333,-427405,-431824,2,2,2,2
2025-08-21 11:55:16.902,-393959,-425329,-427463,-431755,2,2,2,2
2025-08-21 11:55:16.903,-393953,-425259,-427391,-448131,2,2,2,2
2025-08-21 11:55:16.903,-393938,-425245,-443761,-431732,2,2,2,2
2025-08-21 11:55:16.903,-393844,-425467,-427273,-431639,2,2,2,2
2025-08-21 11:55:16.903,-393853,-425471,-427275,-431643,2,2,2,2
2025-08-21 11:55:16.903,-393863,-425226,-427289,-431720,2,2,2,2
2025-08-21 11:55:16.904,-393853,-425217,-427282,-448065,2,2,2,2
2025-08-21 11:55:16.904,-393786,-425217,-443664,-431647,2,2,2,2
2025-08-21 11:55:16.904,-393857,-408844,-427290,-448099,2,2,2,2
2025-08-21 11:55:16.904,-393877,-425245,-427377,-431670,2,2,2,2
2025-08-21 11:55:16.904,-393959,-425321,-427328,-431748,2,2,2,2
2025-08-21 11:55:16.904,-393989,-425415,-427423,-448227,2,2,2,2
2025-08-21 11:55:16.905,-394008,-425372,-443893,-431865,2,2,2,2
2025-08-21 11:55:16.905,-394023,-425448,-443656,-431878,2,2,2,2
2025-08-21 11:55:16.905,-394087,-409039,-427279,-440074,2,2,2,2
2025-08-21 11:55:16.905,-394083,-425452,-427279,-431878,2,2,2,2
2025-08-21 11:55:16.905,-394022,-425454,-443661,-431878,2,2,2,2
2025-08-21 11:55:16.905,-394096,-425461,-427286,-448269,2,2,2,2
2025-08-21 11:55:16.906,-394180,-425479,-443717,-431902,2,2,2,2
2025-08-21 11:55:16.906,-394126,-409105,-427371,-440163,2,2,2,2
2025-08-21 11:55:16.906,-394122,-425483,-427298,-431901,2,2,2,2
2025-08-21 11:55:16.906,-394063,-425456,-427269,-431879,2,2,2,2
2025-08-21 11:55:16.907,-394000,-425364,-427493,-431849,2,2,2,2
2025-08-21 11:55:16.907,-393969,-425272,-427398,-448202,2,2,2,2
2025-08-21 11:55:16.907,-393959,-425329,-443708,-431747,2,2,2,2
2025-08-21 11:55:16.907,-393960,-408912,-427389,-439937,2,2,2,2
2025-08-21 11:55:16.907,-393921,-425318,-427381,-431674,2,2,2,2
2025-08-21 11:55:16.908,-393881,-425246,-427311,-431729,2,2,2,2
2025-08-21 11:55:16.908,-393791,-425219,-443703,-431635,2,2,2,2
2025-08-21 11:55:16.908,-393846,-409083,-427278,-439818,2,2,2,2
2025-08-21 11:55:16.908,-393849,-408835,-427280,-448016,2,2,2,2
2025-08-21 11:55:16.908,-393843,-425471,-427273,-431628,2,2,2,2
2025-08-21 11:55:16.909,-393868,-408857,-427365,-431717,2,2,2,2
2025-08-21 11:55:16.909,-393870,-425241,-427366,-431658,2,2,2,2
2025-08-21 11:55:16.909,-393861,-408852,-427294,-448097,2,2,2,2
2025-08-21 11:55:16.910,-393862,-425241,-427363,-448102,2,2,2,2
2025-08-21 11:55:16.910,-393942,-425323,-443764,-431736,2,2,2,2
2025-08-21 11:55:16.910,-393887,-408908,-427383,-439931,2,2,2,2
2025-08-21 11:55:16.910,-393938,-425247,-427303,-431727,2,2,2,2
2025-08-21 11:55:16.910,-393865,-408854,-427365,-448105,2,2,2,2
2025-08-21 11:55:16.911,-393866,-425241,-427368,-448113,2,2,2,2
2025-08-21 11:55:16.911,-393869,-425245,-427367,-448050,2,2,2,2
2025-08-21 11:55:16.911,-393860,-408850,-427292,-439912,2,2,2,2
2025-08-21 11:55:16.911,-393866,-425241,-427362,-431664,2,2,2,2
2025-08-21 11:55:16.911,-393879,-425321,-427312,-431742,2,2,2,2
2025-08-21 11:55:16.911,-393886,-425263,-427381,-448130,2,2,2,2
2025-08-21 11:55:16.912,-393933,-425247,-443750,-431726,2,2,2,2
2025-08-21 11:55:16.912,-393792,-425234,-443706,-431647,2,2,2,2
2025-08-21 11:55:16.912,-393868,-408890,-427368,-439912,2,2,2,2
2025-08-21 11:55:16.912,-393910,-425248,-427375,-431665,2,2,2,2
2025-08-21 11:55:16.912,-393888,-425322,-427320,-431738,2,2,2,2
2025-08-21 11:55:16.912,-393972,-425280,-427402,-448138,2,2,2,2
2025-08-21 11:55:16.913,-393980,-425350,-443789,-431760,2,2,2,2
2025-08-21 11:55:16.913,-393975,-408956,-427399,-439943,2,2,2,2
2025-08-21 11:55:16.913,-393967,-425330,-427390,-431680,2,2,2,2
2025-08-21 11:55:16.913,-393933,-425327,-443772,-431676,2,2,2,2
2025-08-21 11:55:16.913,-393886,-425248,-427309,-431726,2,2,2,2
2025-08-21 11:55:16.913,-393938,-425236,-443716,-431715,2,2,2,2
2025-08-21 11:55:16.914,-393936,-425231,-443715,-431647,2,2,2,2
2025-08-21 11:55:16.914,-393872,-408882,-427367,-448097,2,2,2,2
2025-08-21 11:55:16.914,-393908,-425240,-427375,-431654,2,2,2,2
2025-08-21 11:55:16.914,-393960,-425260,-427389,-431674,2,2,2,2
2025-08-21 11:55:16.914,-393961,-425328,-427461,-431739,2,2,2,2
2025-08-21 11:55:16.915,-393956,-425258,-427391,-448115,2,2,2,2
2025-08-21 11:55:16.915,-393918,-425315,-443769,-431723,2,2,2,2
2025-08-21 11:55:16.915,-393966,-425275,-427403,-448193,2,2,2,2
2025-08-21 11:55:16.915,-393993,-425363,-427495,-431771,2,2,2,2
2025-08-21 11:55:16.915,-394011,-425376,-427507,-431853,2,2,2,2
2025-08-21 11:55:16.915,-394009,-425439,-427504,-448236,2,2,2,2
2025-08-21 11:55:16.916,-393995,-425369,-443877,-431844,2,2,2,2
2025-08-21 11:55:16.916,-393998,-409021,-427496,-440040,2,2,2,2
2025-08-21 11:55:16.916,-394007,-425444,-427508,-431857,2,2,2,2
2025-08-21 11:55:16.916,-394016,-425455,-427520,-431869,2,2,2,2
2025-08-21 11:55:16.916,-394084,-409079,-427272,-448260,2,2,2,2
2025-08-21 11:55:16.917,-394132,-409185,-427374,-440163,2,2,2,2
2025-08-21 11:55:16.917,-394048,-425483,-443670,-431883,2,2,2,2
2025-08-21 11:55:16.917,-394099,-425468,-443653,-431871,2,2,2,2
2025-08-21 11:55:16.917,-394088,-425456,-427513,-448248,2,2,2,2
2025-08-21 11:55:16.917,-394013,-425446,-443886,-431855,2,2,2,2
2025-08-21 11:55:16.918,-393997,-425367,-427490,-431846,2,2,2,2
2025-08-21 11:55:16.918,-394001,-425370,-427497,-431853,2,2,2,2
2025-08-21 11:55:16.918,-394004,-425442,-427504,-448242,2,2,2,2
2025-08-21 11:55:16.918,-394010,-425446,-443890,-431863,2,2,2,2
2025-08-21 11:55:16.918,-394012,-425449,-443897,-431869,2,2,2,2
2025-08-21 11:55:16.918,-394016,-409032,-427515,-440061,2,2,2,2
2025-08-21 11:55:16.919,-394081,-425444,-427518,-431868,2,2,2,2
2025-08-21 11:55:16.919,-394081,-425445,-427518,-431869,2,2,2,2
2025-08-21 11:55:16.919,-394081,-425443,-427516,-448252,2,2,2,2
2025-08-21 11:55:16.919,-394018,-425445,-443899,-431867,2,2,2,2
2025-08-21 11:55:16.919,-394012,-409059,-427510,-440056,2,2,2,2
2025-08-21 11:55:16.920,-394002,-409019,-427502,-448237,2,2,2,2
2025-08-21 11:55:16.920,-393987,-425426,-427490,-448225,2,2,2,2
2025-08-21 11:55:16.920,-393957,-425334,-427460,-431749,2,2,2,2
2025-08-21 11:55:16.920,-393877,-425257,-427384,-448114,2,2,2,2
2025-08-21 11:55:16.921,-393929,-425242,-443720,-431720,2,2,2,2
2025-08-21 11:55:16.921,-393859,-425233,-427295,-431650,2,2,2,2
2025-08-21 11:55:16.921,-393866,-425239,-427364,-431656,2,2,2,2
2025-08-21 11:55:16.921,-393863,-425237,-427295,-431714,2,2,2,2
2025-08-21 11:55:16.922,-393876,-425253,-427372,-448080,2,2,2,2
2025-08-21 11:55:16.922,-393887,-408944,-427382,-439932,2,2,2,2
2025-08-21 11:55:16.922,-393948,-425322,-443694,-431734,2,2,2,2
2025-08-21 11:55:16.922,-393960,-408946,-427382,-448127,2,2,2,2
2025-08-21 11:55:16.923,-393970,-425337,-443775,-431812,2,2,2,2
2025-08-21 11:55:16.923,-393994,-425358,-443795,-431769,2,2,2,2
2025-08-21 11:55:16.923,-393992,-425418,-427411,-448215,2,2,2,2
2025-08-21 11:55:16.923,-393990,-425350,-443825,-431765,2,2,2,2
2025-08-21 11:55:16.924,-393982,-425344,-427467,-431761,2,2,2,2
2025-08-21 11:55:16.924,-393974,-425271,-427396,-448135,2,2,2,2
2025-08-21 11:55:16.924,-393963,-425326,-443770,-431740,2,2,2,2
2025-08-21 11:55:16.925,-393885,-425250,-427369,-431659,2,2,2,2
2025-08-21 11:55:16.925,-393938,-425240,-443678,-431647,2,2,2,2
2025-08-21 11:55:16.925,-393872,-408852,-427291,-448029,2,2,2,2
2025-08-21 11:55:16.925,-393877,-425242,-427363,-448069,2,2,2,2
2025-08-21 11:55:16.926,-393932,-425237,-443678,-431643,2,2,2,2
2025-08-21 11:55:16.926,-393845,-409083,-427273,-431624,2,2,2,2
2025-08-21 11:55:16.926,-393835,-425453,-427262,-431869,2,2,2,2
2025-08-21 11:55:16.926,-393760,-425376,-427250,-431859,2,2,2,2
2025-08-21 11:55:16.927,-393827,-425445,-427254,-448247,2,2,2,2
2025-08-21 11:55:16.927,-393752,-425373,-443598,-431852,2,2,2,2
2025-08-21 11:55:16.927,-393738,-408975,-427167,-440034,2,2,2,2
2025-08-21 11:55:16.928,-393750,-425373,-427243,-431856,2,2,2,2
2025-08-21 11:55:16.928,-393840,-425466,-427275,-448011,2,2,2,2
2025-08-21 11:55:16.928,-393866,-425229,-427295,-448062,2,2,2,2
2025-08-21 11:55:16.928,-393868,-425233,-427362,-448033,2,2,2,2
2025-08-21 11:55:16.929,-393934,-425236,-443715,-431717,2,2,2,2
2025-08-21 11:55:16.929,-393909,-425248,-427370,-431662,2,2,2,2
2025-08-21 11:55:16.929,-393922,-425324,-427381,-431673,2,2,2,2
2025-08-21 11:55:16.930,-393966,-425338,-427459,-431754,2,2,2,2
2025-08-21 11:55:16.930,-393977,-425278,-427401,-448144,2,2,2,2
2025-08-21 11:55:16.930,-393992,-408973,-427413,-439963,2,2,2,2
2025-08-21 11:55:16.931,-394007,-409016,-427423,-440037,2,2,2,2
2025-08-21 11:55:16.931,-394013,-409055,-427494,-448234,2,2,2,2
2025-08-21 11:55:16.931,-393996,-425359,-443797,-431771,2,2,2,2
2025-08-21 11:55:16.931,-393978,-425413,-427401,-431821,2,2,2,2
2025-08-21 11:55:16.932,-393969,-425279,-427395,-431816,2,2,2,2
2025-08-21 11:55:16.932,-393972,-425347,-443843,-431755,2,2,2,2
2025-08-21 11:55:16.932,-393969,-408965,-427399,-448142,2,2,2,2
2025-08-21 11:55:16.932,-393963,-425345,-443778,-431754,2,2,2,2
2025-08-21 11:55:16.933,-393960,-425345,-427392,-431814,2,2,2,2
2025-08-21 11:55:16.933,-393972,-425355,-427463,-431759,2,2,2,2
2025-08-21 11:55:16.933,-393980,-425428,-427410,-448152,2,2,2,2
2025-08-21 11:55:16.933,-393999,-425447,-443878,-431849,2,2,2,2
2025-08-21 11:55:16.934,-394081,-409076,-427508,-440052,2,2,2,2
2025-08-21 11:55:16.934,-394012,-425455,-427500,-431850,2,2,2,2
2025-08-21 11:55:16.934,-394000,-425444,-427488,-431774,2,2,2,2
2025-08-21 11:55:16.935,-393998,-425441,-427423,-448188,2,2,2,2
2025-08-21 11:55:16.935,-394002,-425449,-443847,-431851,2,2,2,2
2025-08-21 11:55:16.935,-394081,-409077,-427514,-440060,2,2,2,2
2025-08-21 11:55:16.936,-394059,-425474,-427272,-431880,2,2,2,2
2025-08-21 11:55:16.936,-394106,-425493,-427292,-448312,2,2,2,2
2025-08-21 11:55:16.936,-394113,-425501,-427363,-448322,2,2,2,2
2025-08-21 11:55:16.936,-394046,-425495,-443712,-431904,2,2,2,2
2025-08-21 11:55:16.937,-394116,-409146,-427363,-440166,2,2,2,2
2025-08-21 11:55:16.937,-394126,-409127,-427371,-448369,2,2,2,2
2025-08-21 11:55:16.937,-394121,-425569,-443748,-431983,2,2,2,2
2025-08-21 11:55:16.938,-394133,-425510,-427364,-448310,2,2,2,2
2025-08-21 11:55:16.938,-394208,-425580,-443690,-432000,2,2,2,2
2025-08-21 11:55:16.938,-394218,-409205,-427382,-448394,2,2,2,2
2025-08-21 11:55:16.938,-394181,-425584,-427384,-432075,2,2,2,2
2025-08-21 11:55:16.939,-394140,-425577,-427311,-432004,2,2,2,2
2025-08-21 11:55:16.939,-394139,-425512,-427371,-448452,2,2,2,2
2025-08-21 11:55:16.939,-394212,-425586,-427380,-432073,2,2,2,2
2025-08-21 11:55:16.939,-394212,-425584,-427317,-432006,2,2,2,2
2025-08-21 11:55:16.940,-394210,-409134,-427380,-448385,2,2,2,2
2025-08-21 11:55:16.940,-394210,-425586,-427321,-432007,2,2,2,2
2025-08-21 11:55:16.940,-394214,-425534,-427397,-432076,2,2,2,2
2025-08-21 11:55:16.941,-394211,-425597,-443844,-432010,2,2,2,2
2025-08-21 11:55:16.941,-394144,-425596,-427458,-432007,2,2,2,2
2025-08-21 11:55:16.941,-394213,-425534,-427398,-448397,2,2,2,2
2025-08-21 11:55:16.941,-394207,-425587,-443774,-432010,2,2,2,2
2025-08-21 11:55:16.942,-394162,-425571,-427379,-431929,2,2,2,2
2025-08-21 11:55:16.942,-394110,-425486,-427292,-431971,2,2,2,2
2025-08-21 11:55:16.942,-394107,-425479,-427285,-448286,2,2,2,2
2025-08-21 11:55:16.943,-394030,-425464,-443655,-431887,2,2,2,2
2025-08-21 11:55:16.943,-394084,-409038,-427519,-440064,2,2,2,2
2025-08-21 11:55:16.943,-394090,-409075,-427519,-440068,2,2,2,2
2025-08-21 11:55:16.943,-394090,-425461,-427520,-431877,2,2,2,2
2025-08-21 11:55:16.944,-394015,-425456,-427511,-431868,2,2,2,2
2025-08-21 11:55:16.944,-394006,-425445,-427503,-448242,2,2,2,2
2025-08-21 11:55:16.944,-394002,-409059,-427499,-440046,2,2,2,2
2025-08-21 11:55:16.945,-394012,-425448,-427509,-431862,2,2,2,2
2025-08-21 11:55:16.945,-394081,-425448,-427512,-431868,2,2,2,2
2025-08-21 11:55:16.945,-394016,-425449,-427513,-431873,2,2,2,2
2025-08-21 11:55:16.945,-394097,-425462,-427275,-448307,2,2,2,2
2025-08-21 11:55:16.946,-394040,-425469,-443702,-431900,2,2,2,2
2025-08-21 11:55:16.946,-394101,-409083,-427288,-448288,2,2,2,2
2025-08-21 11:55:16.946,-394095,-425467,-427283,-431903,2,2,2,2
2025-08-21 11:55:16.946,-394085,-425460,-427273,-431894,2,2,2,2
2025-08-21 11:55:16.947,-394097,-409090,-427285,-440096,2,2,2,2
2025-08-21 11:55:16.947,-394028,-425467,-443668,-431899,2,2,2,2
2025-08-21 11:55:16.947,-394091,-409083,-427284,-448280,2,2,2,2
2025-08-21 11:55:16.948,-394097,-425478,-427293,-431900,2,2,2,2
2025-08-21 11:55:16.948,-394093,-425479,-427291,-448280,2,2,2,2
2025-08-21 11:55:16.948,-394092,-425477,-427291,-448282,2,2,2,2
2025-08-21 11:55:16.949,-394036,-425485,-443713,-431904,2,2,2,2
2025-08-21 11:55:16.949,-394035,-425483,-427294,-431901,2,2,2,2
2025-08-21 11:55:16.949,-394095,-425479,-427288,-448315,2,2,2,2
2025-08-21 11:55:16.950,-394041,-425489,-443679,-431972,2,2,2,2
2025-08-21 11:55:16.950,-394083,-425473,-427270,-431887,2,2,2,2
2025-08-21 11:55:16.950,-394043,-425467,-427519,-431881,2,2,2,2
2025-08-21 11:55:16.950,-394016,-409083,-427268,-448271,2,2,2,2
2025-08-21 11:55:16.951,-394007,-425455,-427515,-448263,2,2,2,2
2025-08-21 11:55:16.951,-393990,-425436,-427495,-431862,2,2,2,2
2025-08-21 11:55:16.951,-393984,-425367,-427491,-431858,2,2,2,2
2025-08-21 11:55:16.951,-393976,-425360,-427483,-431852,2,2,2,2
2025-08-21 11:55:16.952,-393975,-425422,-427419,-448234,2,2,2,2
2025-08-21 11:55:16.952,-393978,-425360,-443838,-431857,2,2,2,2
2025-08-21 11:55:16.952,-393962,-408958,-427406,-439965,2,2,2,2
2025-08-21 11:55:16.953,-393961,-425341,-427403,-431833,2,2,2,2
2025-08-21 11:55:16.953,-393981,-425362,-443873,-431852,2,2,2,2
2025-08-21 11:55:16.953,-393990,-425434,-427501,-448245,2,2,2,2
2025-08-21 11:55:16.953,-393981,-425367,-443844,-431855,2,2,2,2
2025-08-21 11:55:16.954,-393968,-408973,-427413,-440037,2,2,2,2
2025-08-21 11:55:16.954,-393963,-408965,-427404,-448155,2,2,2,2
2025-08-21 11:55:16.955,-393928,-425348,-427403,-431829,2,2,2,2
2025-08-21 11:55:16.955,-393884,-425337,-427325,-431753,2,2,2,2
2025-08-21 11:55:16.956,-393863,-425253,-427373,-448117,2,2,2,2
2025-08-21 11:55:16.956,-393776,-425233,-443710,-431647,2,2,2,2
2025-08-21 11:55:16.956,-393750,-409082,-427271,-439815,2,2,2,2
2025-08-21 11:55:16.956,-393737,-425451,-427255,-431868,2,2,2,2
2025-08-21 11:55:16.957,-393981,-425370,-427241,-431857,2,2,2,2
2025-08-21 11:55:16.957,-393976,-425427,-427239,-448206,2,2,2,2
2025-08-21 11:55:16.957,-393977,-425364,-443592,-431851,2,2,2,2
2025-08-21 11:55:16.958,-393978,-425364,-443624,-431857,2,2,2,2
2025-08-21 11:55:16.958,-393979,-408976,-427240,-448243,2,2,2,2
2025-08-21 11:55:16.958,-393978,-425359,-427240,-431859,2,2,2,2
2025-08-21 11:55:16.958,-393981,-425365,-427246,-431867,2,2,2,2
2025-08-21 11:55:16.958,-393975,-425355,-443589,-431859,2,2,2,2
2025-08-21 11:55:16.959,-393962,-425279,-427160,-448228,2,2,2,2
2025-08-21 11:55:16.959,-393885,-408883,-427149,-448153,2,2,2,2
2025-08-21 11:55:16.959,-393936,-425320,-443522,-431759,2,2,2,2
2025-08-21 11:55:16.960,-393862,-425248,-427124,-431813,2,2,2,2
2025-08-21 11:55:16.960,-393934,-425318,-443448,-431751,2,2,2,2
2025-08-21 11:55:16.960,-393878,-408879,-427136,-448140,2,2,2,2
2025-08-21 11:55:16.960,-393922,-425338,-443531,-431767,2,2,2,2
2025-08-21 11:55:16.960,-393885,-408945,-427138,-439953,2,2,2,2
2025-08-21 11:55:16.961,-393958,-408948,-427142,-431765,2,2,2,2
2025-08-21 11:55:16.961,-393972,-425350,-427156,-431847,2,2,2,2
2025-08-21 11:55:16.961,-393984,-425362,-427232,-431857,2,2,2,2
2025-08-21 11:55:16.961,-393741,-425435,-427242,-448252,2,2,2,2
2025-08-21 11:55:16.961,-393747,-425376,-443634,-431620,2,2,2,2
2025-08-21 11:55:16.962,-393830,-425460,-427275,-431645,2,2,2,2
2025-08-21 11:55:16.962,-393855,-425226,-427305,-431730,2,2,2,2
2025-08-21 11:55:16.962,-393875,-425315,-427328,-431750,2,2,2,2
2025-08-21 11:55:16.962,-393955,-425267,-427404,-448181,2,2,2,2
2025-08-21 11:55:16.963,-393969,-425347,-443830,-431842,2,2,2,2
2025-08-21 11:55:16.963,-393995,-425369,-427504,-431866,2,2,2,2
2025-08-21 11:55:16.963,-394002,-425373,-427510,-431876,2,2,2,2
2025-08-21 11:55:16.963,-394006,-425444,-427515,-431880,2,2,2,2
2025-08-21 11:55:16.964,-394006,-425447,-427520,-448268,2,2,2,2
2025-08-21 11:55:16.964,-394000,-409061,-427518,-431884,2,2,2,2
2025-08-21 11:55:16.964,-394003,-425445,-443900,-431882,2,2,2,2
2025-08-21 11:55:16.964,-393994,-409024,-427506,-440060,2,2,2,2
2025-08-21 11:55:16.965,-393976,-425363,-427491,-431853,2,2,2,2
2025-08-21 11:55:16.965,-393961,-425351,-427478,-431776,2,2,2,2
2025-08-21 11:55:16.965,-393954,-425409,-427408,-448186,2,2,2,2
2025-08-21 11:55:16.965,-393960,-425355,-443830,-431775,2,2,2,2
2025-08-21 11:55:16.966,-393878,-408954,-427397,-439948,2,2,2,2
2025-08-21 11:55:16.966,-393869,-408882,-427385,-448131,2,2,2,2
2025-08-21 11:55:16.966,-393909,-425338,-443776,-431816,2,2,2,2
2025-08-21 11:55:16.966,-393888,-425347,-427464,-431761,2,2,2,2
2025-08-21 11:55:16.967,-393962,-425363,-443829,-431775,2,2,2,2
2025-08-21 11:55:16.967,-393962,-408975,-427415,-439966,2,2,2,2
2025-08-21 11:55:16.967,-393967,-408972,-427419,-448159,2,2,2,2
2025-08-21 11:55:16.967,-393982,-425369,-427497,-431852,2,2,2,2
2025-08-21 11:55:16.968,-393979,-425366,-427493,-431852,2,2,2,2
2025-08-21 11:55:16.968,-393981,-425367,-443843,-431854,2,2,2,2
2025-08-21 11:55:16.968,-393986,-425438,-427498,-431858,2,2,2,2
2025-08-21 11:55:16.968,-393993,-425446,-443890,-431867,2,2,2,2
2025-08-21 11:55:16.969,-393994,-425447,-427510,-431870,2,2,2,2
2025-08-21 11:55:16.969,-393988,-425373,-427507,-431866,2,2,2,2
2025-08-21 11:55:16.969,-393999,-425445,-427515,-448263,2,2,2,2
2025-08-21 11:55:16.970,-393998,-425446,-443894,-431881,2,2,2,2
2025-08-21 11:55:16.970,-393990,-425374,-427504,-431877,2,2,2,2
2025-08-21 11:55:16.970,-393977,-425357,-427491,-431860,2,2,2,2
2025-08-21 11:55:16.970,-393961,-425340,-427473,-431843,2,2,2,2
2025-08-21 11:55:16.971,-393961,-425278,-427409,-448228,2,2,2,2
2025-08-21 11:55:16.971,-393957,-408955,-427409,-440038,2,2,2,2
2025-08-21 11:55:16.971,-393952,-425334,-427472,-431846,2,2,2,2
2025-08-21 11:55:16.971,-393881,-408877,-427399,-448159,2,2,2,2
2025-08-21 11:55:16.972,-393941,-425319,-443780,-431769,2,2,2,2
2025-08-21 11:55:16.972,-393948,-425325,-443785,-431772,2,2,2,2
2025-08-21 11:55:16.972,-393962,-408957,-427413,-440040,2,2,2,2
2025-08-21 11:55:16.972,-393965,-425345,-427413,-431850,2,2,2,2
2025-08-21 11:55:16.973,-393977,-425360,-427488,-431858,2,2,2,2
2025-08-21 11:55:16.973,-393993,-425439,-427504,-448256,2,2,2,2
2025-08-21 11:55:16.973,-393987,-425372,-443887,-431868,2,2,2,2
2025-08-21 11:55:16.974,-393976,-408974,-427493,-431858,2,2,2,2
2025-08-21 11:55:16.974,-393956,-425339,-427412,-431838,2,2,2,2
2025-08-21 11:55:16.974,-393867,-425316,-427324,-431752,2,2,2,2
2025-08-21 11:55:16.974,-393848,-425233,-427365,-448113,2,2,2,2
2025-08-21 11:55:16.974,-393840,-425226,-427292,-448075,2,2,2,2
2025-08-21 11:55:16.975,-393775,-425227,-443705,-431724,2,2,2,2
2025-08-21 11:55:16.975,-393851,-408852,-427364,-448122,2,2,2,2
2025-08-21 11:55:16.975,-393868,-425318,-427378,-431820,2,2,2,2
2025-08-21 11:55:16.975,-393907,-425325,-443768,-431829,2,2,2,2
2025-08-21 11:55:16.976,-393934,-425324,-443707,-431766,2,2,2,2
2025-08-21 11:55:16.976,-393869,-408934,-427386,-439955,2,2,2,2
2025-08-21 11:55:16.976,-393867,-408898,-427385,-448144,2,2,2,2
2025-08-21 11:55:16.977,-393907,-425317,-427392,-431829,2,2,2,2
2025-08-21 11:55:16.977,-393877,-425257,-427398,-448214,2,2,2,2
2025-08-21 11:55:16.977,-393864,-425248,-427387,-431813,2,2,2,2
2025-08-21 11:55:16.978,-393937,-425317,-427460,-431753,2,2,2,2
2025-08-21 11:55:16.978,-393945,-425325,-443782,-431756,2,2,2,2
2025-08-21 11:55:16.978,-393914,-425323,-443782,-431754,2,2,2,2
2025-08-21 11:55:16.979,-393873,-425257,-427392,-431812,2,2,2,2
2025-08-21 11:55:16.979,-393880,-408881,-427400,-448138,2,2,2,2
2025-08-21 11:55:16.979,-393954,-408959,-427411,-448148,2,2,2,2
2025-08-21 11:55:16.979,-393964,-425415,-427423,-448156,2,2,2,2
2025-08-21 11:55:16.980,-393976,-425365,-427500,-431849,2,2,2,2
2025-08-21 11:55:16.980,-393983,-425368,-443885,-431853,2,2,2,2
2025-08-21 11:55:16.980,-393999,-425443,-443901,-431871,2,2,2,2
2025-08-21 11:55:16.980,-393992,-425443,-427516,-431866,2,2,2,2
2025-08-21 11:55:16.981,-393969,-425422,-427494,-448230,2,2,2,2
2025-08-21 11:55:16.981,-393948,-425331,-443792,-431758,2,2,2,2
2025-08-21 11:55:16.981,-393953,-408947,-427410,-439951,2,2,2,2
2025-08-21 11:55:16.982,-393871,-425314,-427388,-431673,2,2,2,2
2025-08-21 11:55:16.982,-393860,-425237,-427310,-431725,2,2,2,2
2025-08-21 11:55:16.982,-393853,-425235,-427370,-448078,2,2,2,2
2025-08-21 11:55:16.982,-393775,-425222,-443679,-431718,2,2,2,2
2025-08-21 11:55:16.983,-393756,-409075,-427278,-431639,2,2,2,2
2025-08-21 11:55:16.983,-393744,-409031,-427265,-448010,2,2,2,2
2025-08-21 11:55:16.983,-393740,-425445,-427263,-431623,2,2,2,2
2025-08-21 11:55:16.983,-393984,-425368,-427249,-431867,2,2,2,2
2025-08-21 11:55:16.984,-393975,-425421,-427238,-448241,2,2,2,2
2025-08-21 11:55:16.984,-393982,-408981,-427246,-440053,2,2,2,2
2025-08-21 11:55:16.984,-393730,-425437,-427253,-448248,2,2,2,2
2025-08-21 11:55:16.985,-393975,-425367,-427248,-431857,2,2,2,2
2025-08-21 11:55:16.985,-393950,-425344,-443542,-431768,2,2,2,2
2025-08-21 11:55:16.985,-393875,-425271,-427150,-448204,2,2,2,2
2025-08-21 11:55:16.985,-393943,-425338,-443605,-431762,2,2,2,2
2025-08-21 11:55:16.986,-393888,-408961,-427165,-448160,2,2,2,2
2025-08-21 11:55:16.986,-393927,-425354,-427235,-431847,2,2,2,2
2025-08-21 11:55:16.986,-393979,-425371,-427250,-431858,2,2,2,2
2025-08-21 11:55:16.986,-393734,-425440,-427256,-448252,2,2,2,2
2025-08-21 11:55:16.987,-393737,-425443,-443640,-431619,2,2,2,2
2025-08-21 11:55:16.987,-393749,-425450,-427265,-431633,2,2,2,2
2025-08-21 11:55:16.987,-393759,-409075,-427273,-448028,2,2,2,2
2025-08-21 11:55:16.987,-393767,-425469,-443666,-431716,2,2,2,2
2025-08-21 11:55:16.988,-393833,-425471,-427285,-448069,2,2,2,2
2025-08-21 11:55:16.988,-393833,-425471,-427284,-431655,2,2,2,2
2025-08-21 11:55:16.988,-393763,-425467,-443663,-431647,2,2,2,2
2025-08-21 11:55:16.988,-393831,-409085,-427283,-448097,2,2,2,2
2025-08-21 11:55:16.989,-393807,-425219,-443672,-431653,2,2,2,2
2025-08-21 11:55:16.989,-393931,-425313,-443762,-431740,2,2,2,2
2025-08-21 11:55:16.989,-393982,-425369,-427502,-431859,2,2,2,2
2025-08-21 11:55:16.990,-394002,-409074,-427268,-448264,2,2,2,2
2025-08-21 11:55:16.990,-394008,-425468,-427279,-448307,2,2,2,2
2025-08-21 11:55:16.990,-394009,-425471,-443666,-431896,2,2,2,2
2025-08-21 11:55:16.991,-394088,-425486,-427365,-431914,2,2,2,2
2025-08-21 11:55:16.991,-394086,-425486,-427304,-431973,2,2,2,2
2025-08-21 11:55:16.991,-394082,-425480,-427305,-431973,2,2,2,2
2025-08-21 11:55:16.991,-394015,-425474,-427363,-448320,2,2,2,2
2025-08-21 11:55:16.992,-394007,-409082,-427286,-448281,2,2,2,2
2025-08-21 11:55:16.992,-393978,-425370,-427511,-431868,2,2,2,2
2025-08-21 11:55:16.992,-393955,-425350,-427491,-431844,2,2,2,2
2025-08-21 11:55:16.993,-393854,-425248,-427388,-448126,2,2,2,2
2025-08-21 11:55:16.993,-393766,-425226,-443715,-431717,2,2,2,2
2025-08-21 11:55:16.993,-393754,-425470,-443709,-431643,2,2,2,2
2025-08-21 11:55:16.993,-393739,-409037,-427275,-439819,2,2,2,2
2025-08-21 11:55:16.994,-393733,-425446,-427267,-431622,2,2,2,2
2025-08-21 11:55:16.994,-393975,-425429,-427248,-448249,2,2,2,2
2025-08-21 11:55:16.994,-393953,-425410,-427162,-448196,2,2,2,2
2025-08-21 11:55:16.994,-393955,-425352,-443581,-431851,2,2,2,2
2025-08-21 11:55:16.995,-393960,-408972,-427168,-440048,2,2,2,2
2025-08-21 11:55:16.995,-393927,-425350,-443544,-431853,2,2,2,2
2025-08-21 11:55:16.995,-393976,-425362,-427238,-431864,2,2,2,2
2025-08-21 11:55:16.995,-393984,-425373,-427248,-431871,2,2,2,2
2025-08-21 11:55:16.996,-393971,-425360,-443622,-431862,2,2,2,2
2025-08-21 11:55:16.996,-393972,-425363,-427242,-431866,2,2,2,2
2025-08-21 11:55:16.996,-393749,-409073,-427269,-439833,2,2,2,2
2025-08-21 11:55:16.996,-393800,-425224,-427293,-431663,2,2,2,2
2025-08-21 11:55:16.997,-393775,-425233,-443748,-431734,2,2,2,2
2025-08-21 11:55:16.997,-393792,-425317,-443770,-431753,2,2,2,2
2025-08-21 11:55:16.997,-393855,-425255,-427389,-431821,2,2,2,2
2025-08-21 11:55:16.997,-393787,-425317,-443704,-431750,2,2,2,2
2025-08-21 11:55:16.998,-393838,-408855,-427371,-448124,2,2,2,2
2025-08-21 11:55:16.998,-393759,-425224,-427292,-448075,2,2,2,2
2025-08-21 11:55:16.999,-393751,-425469,-427281,-431643,2,2,2,2
2025-08-21 11:55:16.999,-393755,-425468,-427283,-431646,2,2,2,2
2025-08-21 11:55:16.999,-393760,-425224,-427291,-448102,2,2,2,2
2025-08-21 11:55:16.999,-393770,-425234,-443755,-431729,2,2,2,2
2025-08-21 11:55:17.000,-393840,-425239,-427378,-431668,2,2,2,2
2025-08-21 11:55:17.000,-393828,-425227,-427369,-431660,2,2,2,2
2025-08-21 11:55:17.000,-393751,-425468,-427292,-431648,2,2,2,2
2025-08-21 11:55:17.001,-393743,-425458,-427284,-448054,2,2,2,2
2025-08-21 11:55:17.001,-393743,-409069,-427275,-439828,2,2,2,2
2025-08-21 11:55:17.001,-393737,-425453,-427269,-431628,2,2,2,2
2025-08-21 11:55:17.002,-393984,-425448,-427266,-431625,2,2,2,2
2025-08-21 11:55:17.002,-393977,-425445,-427265,-431621,2,2,2,2
2025-08-21 11:55:17.002,-393976,-425441,-443644,-431617,2,2,2,2
2025-08-21 11:55:17.002,-393971,-425372,-443633,-431867,2,2,2,2
2025-08-21 11:55:17.003,-393980,-409033,-427261,-439815,2,2,2,2
2025-08-21 11:55:17.003,-393981,-409066,-427261,-448008,2,2,2,2
2025-08-21 11:55:17.003,-393974,-425443,-427254,-431871,2,2,2,2
2025-08-21 11:55:17.003,-393982,-425452,-427264,-448010,2,2,2,2
2025-08-21 11:55:17.004,-393736,-425459,-443656,-431635,2,2,2,2
2025-08-21 11:55:17.004,-393752,-408835,-427288,-439908,2,2,2,2
2025-08-21 11:55:17.004,-393782,-425218,-427282,-431649,2,2,2,2
2025-08-21 11:55:17.004,-393738,-425459,-427267,-431639,2,2,2,2
2025-08-21 11:55:17.005,-393737,-425450,-427261,-431633,2,2,2,2
2025-08-21 11:55:17.005,-393733,-425448,-427259,-448013,2,2,2,2
2025-08-21 11:55:17.005,-393976,-425374,-427249,-431617,2,2,2,2
2025-08-21 11:55:17.005,-393983,-409030,-427256,-439816,2,2,2,2
2025-08-21 11:55:17.006,-393739,-425459,-427270,-431640,2,2,2,2
2025-08-21 11:55:17.006,-393755,-425224,-427282,-431655,2,2,2,2
2025-08-21 11:55:17.007,-393742,-425469,-443653,-431639,2,2,2,2
2025-08-21 11:55:17.007,-393982,-425455,-427253,-448005,2,2,2,2
2025-08-21 11:55:17.007,-393972,-425449,-443631,-431872,2,2,2,2
2025-08-21 11:55:17.008,-393962,-425432,-427236,-448245,2,2,2,2
2025-08-21 11:55:17.008,-393936,-425369,-427239,-431861,2,2,2,2
2025-08-21 11:55:17.008,-393961,-425361,-427237,-431853,2,2,2,2
2025-08-21 11:55:17.008,-393959,-425419,-427168,-448235,2,2,2,2
2025-08-21 11:55:17.009,-393968,-425362,-443626,-431861,2,2,2,2
2025-08-21 11:55:17.009,-393975,-409015,-427248,-440060,2,2,2,2
2025-08-21 11:55:17.009,-393983,-425373,-427257,-431619,2,2,2,2
2025-08-21 11:55:17.009,-393973,-425368,-427251,-431869,2,2,2,2
2025-08-21 11:55:17.010,-393970,-409045,-427247,-448250,2,2,2,2
2025-08-21 11:55:17.010,-393970,-425366,-443600,-431868,2,2,2,2
2025-08-21 11:55:17.010,-393974,-425368,-443634,-431871,2,2,2,2
2025-08-21 11:55:17.010,-393982,-409059,-427260,-439818,2,2,2,2
2025-08-21 11:55:17.011,-393736,-425459,-427269,-431637,2,2,2,2
2025-08-21 11:55:17.011,-393735,-425458,-427270,-431636,2,2,2,2
2025-08-21 11:55:17.011,-393743,-425470,-427281,-448060,2,2,2,2
2025-08-21 11:55:17.011,-393743,-425471,-443669,-431643,2,2,2,2
2025-08-21 11:55:17.012,-393862,-425331,-427468,-431756,2,2,2,2
2025-08-21 11:55:17.012,-393910,-425347,-427418,-431838,2,2,2,2
2025-08-21 11:55:17.012,-393872,-425340,-427476,-431769,2,2,2,2
2025-08-21 11:55:17.013,-393851,-425253,-427390,-448130,2,2,2,2
2025-08-21 11:55:17.013,-393830,-425230,-427368,-431661,2,2,2,2
2025-08-21 11:55:17.013,-393749,-409087,-427290,-439836,2,2,2,2
2025-08-21 11:55:17.013,-393752,-425219,-427292,-431650,2,2,2,2
2025-08-21 11:55:17.014,-393832,-425232,-427303,-431731,2,2,2,2
2025-08-21 11:55:17.014,-393875,-425263,-427402,-448209,2,2,2,2
2025-08-21 11:55:17.014,-393935,-425323,-443781,-431758,2,2,2,2
2025-08-21 11:55:17.015,-393863,-408900,-427392,-448134,2,2,2,2
2025-08-21 11:55:17.015,-393860,-425248,-443776,-431748,2,2,2,2
2025-08-21 11:55:17.015,-393862,-425248,-427457,-431749,2,2,2,2
2025-08-21 11:55:17.015,-393867,-425251,-427397,-448134,2,2,2,2
2025-08-21 11:55:17.016,-393791,-425242,-443774,-431746,2,2,2,2
2025-08-21 11:55:17.016,-393845,-408882,-427374,-448119,2,2,2,2
2025-08-21 11:55:17.016,-393832,-408836,-427291,-448103,2,2,2,2
2025-08-21 11:55:17.016,-393787,-425466,-443664,-431640,2,2,2,2
2025-08-21 11:55:17.017,-393746,-425456,-427267,-431628,2,2,2,2
2025-08-21 11:55:17.017,-393729,-425376,-443640,-431868,2,2,2,2
2025-08-21 11:55:17.017,-393976,-409018,-427252,-448241,2,2,2,2
2025-08-21 11:55:17.018,-393735,-425451,-427269,-431618,2,2,2,2
2025-08-21 11:55:17.018,-393828,-425222,-427361,-448061,2,2,2,2
2025-08-21 11:55:17.018,-393869,-425330,-427407,-431818,2,2,2,2
2025-08-21 11:55:17.019,-393939,-425334,-427477,-431760,2,2,2,2
2025-08-21 11:55:17.019,-393867,-425326,-427471,-431757,2,2,2,2
2025-08-21 11:55:17.019,-393932,-425323,-443788,-431758,2,2,2,2
2025-08-21 11:55:17.020,-393864,-425256,-427402,-431820,2,2,2,2
2025-08-21 11:55:17.020,-393871,-425323,-427407,-431830,2,2,2,2
2025-08-21 11:55:17.020,-393865,-425318,-427464,-431760,2,2,2,2
2025-08-21 11:55:17.020,-393865,-425256,-427401,-448142,2,2,2,2
2025-08-21 11:55:17.021,-393930,-425322,-443785,-431758,2,2,2,2
2025-08-21 11:55:17.021,-393861,-408932,-427394,-431752,2,2,2,2
2025-08-21 11:55:17.021,-393846,-425238,-427383,-431809,2,2,2,2
2025-08-21 11:55:17.021,-393840,-425232,-427312,-431737,2,2,2,2
2025-08-21 11:55:17.022,-393845,-425238,-427314,-431738,2,2,2,2
2025-08-21 11:55:17.022,-393849,-425238,-427379,-448123,2,2,2,2
2025-08-21 11:55:17.022,-393926,-425316,-443777,-431753,2,2,2,2
2025-08-21 11:55:17.022,-393863,-408903,-427393,-439948,2,2,2,2
2025-08-21 11:55:17.023,-393855,-425314,-427383,-431814,2,2,2,2
2025-08-21 11:55:17.023,-393827,-425224,-427365,-448080,2,2,2,2
2025-08-21 11:55:17.023,-393737,-425457,-427277,-448023,2,2,2,2
2025-08-21 11:55:17.024,-393964,-425370,-443637,-431871,2,2,2,2
2025-08-21 11:55:17.024,-393916,-425353,-427239,-431857,2,2,2,2
2025-08-21 11:55:17.024,-393873,-425277,-427163,-448228,2,2,2,2
2025-08-21 11:55:17.024,-393868,-425333,-427219,-431774,2,2,2,2
2025-08-21 11:55:17.025,-393876,-425274,-427157,-448195,2,2,2,2
2025-08-21 11:55:17.025,-393956,-425353,-427236,-431856,2,2,2,2
2025-08-21 11:55:17.025,-393962,-408975,-427241,-440055,2,2,2,2
2025-08-21 11:55:17.025,-393978,-409055,-427256,-448003,2,2,2,2
2025-08-21 11:55:17.026,-393735,-425451,-443654,-431635,2,2,2,2
2025-08-21 11:55:17.026,-393750,-409085,-427285,-439909,2,2,2,2
2025-08-21 11:55:17.026,-393841,-425242,-427373,-431675,2,2,2,2
2025-08-21 11:55:17.026,-393852,-425316,-427384,-431812,2,2,2,2
2025-08-21 11:55:17.027,-393855,-425319,-427328,-431752,2,2,2,2
2025-08-21 11:55:17.027,-393926,-425330,-443790,-431763,2,2,2,2
2025-08-21 11:55:17.027,-393874,-425340,-427482,-431776,2,2,2,2
2025-08-21 11:55:17.028,-393869,-425338,-427414,-431835,2,2,2,2
2025-08-21 11:55:17.028,-393857,-425264,-427405,-448145,2,2,2,2
2025-08-21 11:55:17.028,-393855,-425320,-427461,-431759,2,2,2,2
2025-08-21 11:55:17.028,-393861,-425263,-427401,-448185,2,2,2,2
2025-08-21 11:55:17.029,-393956,-425364,-427498,-431868,2,2,2,2
2025-08-21 11:55:17.029,-393973,-425446,-443901,-431887,2,2,2,2
2025-08-21 11:55:17.029,-393995,-425466,-427280,-431903,2,2,2,2
2025-08-21 11:55:17.030,-393998,-425467,-427280,-448319,2,2,2,2
2025-08-21 11:55:17.030,-394006,-425479,-427289,-431912,2,2,2,2
2025-08-21 11:55:17.030,-394008,-425481,-443709,-431978,2,2,2,2
2025-08-21 11:55:17.030,-394015,-409101,-427363,-440170,2,2,2,2
2025-08-21 11:55:17.031,-394033,-425470,-427284,-431902,2,2,2,2
2025-08-21 11:55:17.031,-394006,-425478,-427289,-448327,2,2,2,2
2025-08-21 11:55:17.031,-394015,-425487,-427362,-448335,2,2,2,2
2025-08-21 11:55:17.031,-394015,-425487,-443717,-431982,2,2,2,2
2025-08-21 11:55:17.032,-394010,-409101,-427361,-440170,2,2,2,2
2025-08-21 11:55:17.032,-393984,-425458,-427272,-431887,2,2,2,2
2025-08-21 11:55:17.032,-393932,-425370,-443893,-431867,2,2,2,2
2025-08-21 11:55:17.033,-393955,-425360,-443851,-431858,2,2,2,2
2025-08-21 11:55:17.033,-393885,-408964,-427492,-440043,2,2,2,2
2025-08-21 11:55:17.033,-393953,-408963,-427494,-448235,2,2,2,2
2025-08-21 11:55:17.033,-393924,-425352,-427495,-431853,2,2,2,2
2025-08-21 11:55:17.034,-393884,-425345,-427488,-431849,2,2,2,2
2025-08-21 11:55:17.034,-393877,-425342,-427414,-431846,2,2,2,2
2025-08-21 11:55:17.034,-393941,-425345,-427477,-431845,2,2,2,2
2025-08-21 11:55:17.035,-393866,-408887,-427399,-448151,2,2,2,2
2025-08-21 11:55:17.035,-393864,-425267,-427391,-448179,2,2,2,2
2025-08-21 11:55:17.035,-393875,-425278,-427407,-431846,2,2,2,2
2025-08-21 11:55:17.036,-393950,-425354,-443870,-431859,2,2,2,2
2025-08-21 11:55:17.036,-393960,-425362,-427501,-431871,2,2,2,2
2025-08-21 11:55:17.036,-393954,-425423,-427501,-448257,2,2,2,2
2025-08-21 11:55:17.036,-393952,-425357,-443884,-431871,2,2,2,2
2025-08-21 11:55:17.037,-393877,-425409,-427492,-448247,2,2,2,2
2025-08-21 11:55:17.037,-393873,-425341,-427489,-431861,2,2,2,2
2025-08-21 11:55:17.037,-393923,-425322,-427473,-431842,2,2,2,2
2025-08-21 11:55:17.037,-393857,-425261,-427410,-448226,2,2,2,2
2025-08-21 11:55:17.038,-393785,-425322,-443788,-431774,2,2,2,2
2025-08-21 11:55:17.038,-393864,-408952,-427414,-440045,2,2,2,2
2025-08-21 11:55:17.038,-393880,-408967,-427493,-440057,2,2,2,2
2025-08-21 11:55:17.038,-393886,-425358,-427497,-431864,2,2,2,2
2025-08-21 11:55:17.039,-393883,-425357,-427492,-431860,2,2,2,2
2025-08-21 11:55:17.039,-393877,-425412,-427491,-448238,2,2,2,2
2025-08-21 11:55:17.039,-393942,-425347,-443873,-431852,2,2,2,2
2025-08-21 11:55:17.039,-393861,-408945,-427408,-439965,2,2,2,2
2025-08-21 11:55:17.040,-393848,-425315,-427393,-431823,2,2,2,2
2025-08-21 11:55:17.040,-393857,-425325,-427463,-431767,2,2,2,2
2025-08-21 11:55:17.040,-393868,-425337,-427472,-431775,2,2,2,2
2025-08-21 11:55:17.040,-393933,-425339,-443793,-431776,2,2,2,2
2025-08-21 11:55:17.041,-393854,-408876,-427396,-448151,2,2,2,2
2025-08-21 11:55:17.041,-393852,-425321,-427394,-431827,2,2,2,2
2025-08-21 11:55:17.041,-393847,-425318,-427328,-431763,2,2,2,2
2025-08-21 11:55:17.042,-393852,-425261,-427396,-448181,2,2,2,2
2025-08-21 11:55:17.042,-393788,-425322,-443845,-431763,2,2,2,2
2025-08-21 11:55:17.042,-393854,-408940,-427400,-439955,2,2,2,2
2025-08-21 11:55:17.042,-393859,-425329,-427405,-431832,2,2,2,2
2025-08-21 11:55:17.043,-393875,-425342,-427481,-431846,2,2,2,2
2025-08-21 11:55:17.043,-393883,-425416,-427423,-448236,2,2,2,2
2025-08-21 11:55:17.043,-393791,-425325,-443783,-431762,2,2,2,2
2025-08-21 11:55:17.044,-393844,-408900,-427388,-439943,2,2,2,2
2025-08-21 11:55:17.044,-393842,-425314,-427324,-431751,2,2,2,2
2025-08-21 11:55:17.044,-393780,-425320,-443777,-431757,2,2,2,2
2025-08-21 11:55:17.045,-393867,-425276,-427413,-431843,2,2,2,2
2025-08-21 11:55:17.045,-393867,-425340,-427413,-431845,2,2,2,2
2025-08-21 11:55:17.045,-393871,-408887,-427411,-448229,2,2,2,2
2025-08-21 11:55:17.045,-393912,-425336,-443798,-431850,2,2,2,2
2025-08-21 11:55:17.046,-393953,-425345,-443807,-431860,2,2,2,2
2025-08-21 11:55:17.046,-393959,-408965,-427489,-440061,2,2,2,2
2025-08-21 11:55:17.046,-393952,-425344,-443868,-431862,2,2,2,2
2025-08-21 11:55:17.046,-393959,-425352,-427493,-431871,2,2,2,2
2025-08-21 11:55:17.047,-393888,-425410,-427489,-448251,2,2,2,2
2025-08-21 11:55:17.047,-393886,-425412,-427490,-448253,2,2,2,2
2025-08-21 11:55:17.047,-393887,-408966,-427489,-440061,2,2,2,2
2025-08-21 11:55:17.048,-393857,-425324,-427395,-431840,2,2,2,2
2025-08-21 11:55:17.048,-393837,-425236,-427375,-448132,2,2,2,2
2025-08-21 11:55:17.048,-393743,-425462,-443666,-431719,2,2,2,2
2025-08-21 11:55:17.048,-393982,-425376,-443646,-431636,2,2,2,2
2025-08-21 11:55:17.049,-393970,-408979,-427251,-439819,2,2,2,2
2025-08-21 11:55:17.049,-393970,-425359,-427248,-431628,2,2,2,2
2025-08-21 11:55:17.049,-393970,-425362,-427247,-431632,2,2,2,2
2025-08-21 11:55:17.049,-393982,-425369,-427256,-431643,2,2,2,2
2025-08-21 11:55:17.050,-393732,-425439,-427260,-448066,2,2,2,2
2025-08-21 11:55:17.050,-393748,-425452,-443657,-431720,2,2,2,2
2025-08-21 11:55:17.050,-393757,-425462,-427281,-431664,2,2,2,2
2025-08-21 11:55:17.050,-393758,-425468,-427284,-431664,2,2,2,2
2025-08-21 11:55:17.051,-393756,-425467,-427283,-431727,2,2,2,2
2025-08-21 11:55:17.051,-393837,-425233,-427365,-448062,2,2,2,2
2025-08-21 11:55:17.051,-393869,-408950,-427399,-439968,2,2,2,2
2025-08-21 11:55:17.052,-393954,-425361,-427489,-431867,2,2,2,2
2025-08-21 11:55:17.052,-393967,-425372,-427502,-431876,2,2,2,2
2025-08-21 11:55:17.052,-393954,-425358,-427489,-431861,2,2,2,2
2025-08-21 11:55:17.052,-393885,-425414,-427419,-448239,2,2,2,2
2025-08-21 11:55:17.053,-393934,-425340,-443826,-431842,2,2,2,2
2025-08-21 11:55:17.053,-393868,-408952,-427410,-439967,2,2,2,2
2025-08-21 11:55:17.053,-393868,-408893,-427417,-448160,2,2,2,2
2025-08-21 11:55:17.053,-393871,-425346,-427483,-431843,2,2,2,2
2025-08-21 11:55:17.054,-393874,-425411,-427417,-448194,2,2,2,2
2025-08-21 11:55:17.054,-393943,-425352,-443838,-431847,2,2,2,2
2025-08-21 11:55:17.054,-393955,-425364,-443885,-431860,2,2,2,2
2025-08-21 11:55:17.054,-393975,-425445,-427266,-431880,2,2,2,2
2025-08-21 11:55:17.055,-393987,-425459,-443663,-431895,2,2,2,2
2025-08-21 11:55:17.055,-393972,-409062,-427269,-440076,2,2,2,2
2025-08-21 11:55:17.055,-393990,-425461,-427289,-431900,2,2,2,2
2025-08-21 11:55:17.056,-393999,-425468,-427302,-431973,2,2,2,2
2025-08-21 11:55:17.056,-394083,-425488,-427386,-448377,2,2,2,2
2025-08-21 11:55:17.056,-394013,-425483,-443768,-431992,2,2,2,2
2025-08-21 11:55:17.057,-394081,-425486,-427382,-432065,2,2,2,2
2025-08-21 11:55:17.057,-394000,-425473,-427302,-431984,2,2,2,2
2025-08-21 11:55:17.057,-393978,-409067,-427280,-448286,2,2,2,2
2025-08-21 11:55:17.057,-393954,-425364,-443896,-431878,2,2,2,2
2025-08-21 11:55:17.058,-393885,-408964,-427496,-448251,2,2,2,2
2025-08-21 11:55:17.058,-393880,-425342,-427490,-431858,2,2,2,2
2025-08-21 11:55:17.058,-393958,-425360,-427505,-431875,2,2,2,2
2025-08-21 11:55:17.059,-393886,-425418,-427496,-448255,2,2,2,2
2025-08-21 11:55:17.059,-393938,-425338,-443836,-431854,2,2,2,2
2025-08-21 11:55:17.059,-393956,-425348,-427503,-431862,2,2,2,2
2025-08-21 11:55:17.060,-393963,-425353,-427511,-431869,2,2,2,2
2025-08-21 11:55:17.060,-393978,-425368,-443654,-431883,2,2,2,2
2025-08-21 11:55:17.060,-393989,-425443,-427286,-448318,2,2,2,2
2025-08-21 11:55:17.060,-393982,-425373,-443697,-431896,2,2,2,2
2025-08-21 11:55:17.061,-393980,-408991,-427280,-440089,2,2,2,2
2025-08-21 11:55:17.061,-393984,-425376,-427282,-431899,2,2,2,2
2025-08-21 11:55:17.061,-393983,-425375,-427276,-431896,2,2,2,2
2025-08-21 11:55:17.061,-393991,-425451,-427284,-448321,2,2,2,2
2025-08-21 11:55:17.062,-394003,-425461,-427296,-448300,2,2,2,2
2025-08-21 11:55:17.062,-394015,-425476,-443698,-431992,2,2,2,2
2025-08-21 11:55:17.062,-394085,-409101,-427387,-440191,2,2,2,2
2025-08-21 11:55:17.062,-394064,-425495,-427402,-432076,2,2,2,2
2025-08-21 11:55:17.063,-394181,-425578,-443805,-432031,2,2,2,2
2025-08-21 11:55:17.063,-394131,-425526,-427497,-448492,2,2,2,2
2025-08-21 11:55:17.063,-394195,-425585,-443850,-432107,2,2,2,2
2025-08-21 11:55:17.063,-394199,-425590,-443887,-432112,2,2,2,2
2025-08-21 11:55:17.064,-394209,-425598,-427508,-432121,2,2,2,2
2025-08-21 11:55:17.064,-394212,-425604,-443892,-432124,2,2,2,2
2025-08-21 11:55:17.064,-394143,-425665,-427506,-448508,2,2,2,2
2025-08-21 11:55:17.065,-394215,-409223,-427512,-440066,2,2,2,2
2025-08-21 11:55:17.065,-394217,-409292,-427516,-448261,2,2,2,2
2025-08-21 11:55:17.065,-394188,-425614,-427513,-431878,2,2,2,2
2025-08-21 11:55:17.065,-394223,-425621,-427518,-431883,2,2,2,2
2025-08-21 11:55:17.066,-394236,-425701,-427527,-448283,2,2,2,2
2025-08-21 11:55:17.066,-393985,-425708,-443920,-431970,2,2,2,2
2025-08-21 11:55:17.066,-394226,-425701,-427524,-431895,2,2,2,2
2025-08-21 11:55:17.066,-394142,-409297,-427508,-448261,2,2,2,2
2025-08-21 11:55:17.067,-394122,-425533,-427489,-448463,2,2,2,2
2025-08-21 11:55:17.067,-394045,-425579,-443825,-432028,2,2,2,2
2025-08-21 11:55:17.067,-394097,-425499,-427393,-432076,2,2,2,2
2025-08-21 11:55:17.067,-394014,-425486,-443697,-431997,2,2,2,2
2025-08-21 11:55:17.068,-394007,-425481,-427307,-431987,2,2,2,2
2025-08-21 11:55:17.068,-393999,-425474,-427300,-431976,2,2,2,2
2025-08-21 11:55:17.068,-393983,-425457,-443672,-431893,2,2,2,2
2025-08-21 11:55:17.069,-393866,-425341,-427422,-431837,2,2,2,2
2025-08-21 11:55:17.069,-393860,-425335,-427481,-431769,2,2,2,2
2025-08-21 11:55:17.069,-393858,-425267,-427412,-448151,2,2,2,2
2025-08-21 11:55:17.069,-393861,-425269,-427413,-448185,2,2,2,2
2025-08-21 11:55:17.070,-393928,-425330,-443828,-431766,2,2,2,2
2025-08-21 11:55:17.070,-393845,-408898,-427394,-439937,2,2,2,2
2025-08-21 11:55:17.070,-393755,-425227,-427373,-431658,2,2,2,2
2025-08-21 11:55:17.070,-393738,-425467,-427290,-431647,2,2,2,2
2025-08-21 11:55:17.071,-393981,-425459,-427274,-448054,2,2,2,2
2025-08-21 11:55:17.071,-393730,-425468,-443698,-431646,2,2,2,2
2025-08-21 11:55:17.071,-393742,-408839,-427292,-439915,2,2,2,2
2025-08-21 11:55:17.071,-393828,-408892,-427378,-448128,2,2,2,2
2025-08-21 11:55:17.072,-393799,-425245,-427380,-431680,2,2,2,2
2025-08-21 11:55:17.072,-393828,-425244,-427376,-448128,2,2,2,2
2025-08-21 11:55:17.072,-393833,-425250,-427379,-448133,2,2,2,2
2025-08-21 11:55:17.072,-393774,-425317,-443772,-431756,2,2,2,2
2025-08-21 11:55:17.073,-393843,-408904,-427395,-439954,2,2,2,2
2025-08-21 11:55:17.073,-393769,-425247,-443773,-431752,2,2,2,2
2025-08-21 11:55:17.073,-393777,-425226,-443752,-431729,2,2,2,2
2025-08-21 11:55:17.074,-393743,-425219,-427364,-448042,2,2,2,2
2025-08-21 11:55:17.074,-393733,-425464,-427291,-431648,2,2,2,2
2025-08-21 11:55:17.074,-393736,-425464,-427294,-431648,2,2,2,2
2025-08-21 11:55:17.074,-393780,-425219,-427370,-431654,2,2,2,2
2025-08-21 11:55:17.075,-393835,-425247,-427461,-431745,2,2,2,2
2025-08-21 11:55:17.075,-393871,-425350,-427501,-431847,2,2,2,2
2025-08-21 11:55:17.075,-393887,-425365,-427518,-431867,2,2,2,2
2025-08-21 11:55:17.075,-393946,-425362,-427515,-431864,2,2,2,2
2025-08-21 11:55:17.076,-393888,-409050,-427519,-448250,2,2,2,2
2025-08-21 11:55:17.076,-393946,-425362,-443895,-431855,2,2,2,2
2025-08-21 11:55:17.076,-393872,-425413,-427505,-431848,2,2,2,2
2025-08-21 11:55:17.077,-393924,-425337,-443879,-431773,2,2,2,2
2025-08-21 11:55:17.077,-393866,-425342,-443883,-431842,2,2,2,2
2025-08-21 11:55:17.077,-393870,-425409,-427506,-448202,2,2,2,2
2025-08-21 11:55:17.077,-393935,-425344,-443892,-431851,2,2,2,2
2025-08-21 11:55:17.078,-393857,-408950,-427497,-431776,2,2,2,2
2025-08-21 11:55:17.078,-393846,-425325,-427489,-431769,2,2,2,2
2025-08-21 11:55:17.078,-393833,-425248,-427479,-431755,2,2,2,2
2025-08-21 11:55:17.078,-393825,-425235,-427398,-448125,2,2,2,2
2025-08-21 11:55:17.079,-393762,-425238,-443778,-431741,2,2,2,2
2025-08-21 11:55:17.079,-393757,-425234,-443771,-431734,2,2,2,2
2025-08-21 11:55:17.079,-393751,-408845,-427384,-439921,2,2,2,2
2025-08-21 11:55:17.079,-393751,-425229,-427387,-431666,2,2,2,2
2025-08-21 11:55:17.080,-393753,-425231,-427323,-431736,2,2,2,2
2025-08-21 11:55:17.080,-393746,-425223,-427381,-448115,2,2,2,2
2025-08-21 11:55:17.080,-393754,-425235,-443775,-431741,2,2,2,2
2025-08-21 11:55:17.080,-393759,-408857,-427391,-439935,2,2,2,2
2025-08-21 11:55:17.081,-393741,-408838,-427370,-448109,2,2,2,2
2025-08-21 11:55:17.081,-393741,-425472,-427364,-448103,2,2,2,2
2025-08-21 11:55:17.081,-393743,-425221,-427306,-431722,2,2,2,2
2025-08-21 11:55:17.081,-393754,-425232,-427386,-448120,2,2,2,2
2025-08-21 11:55:17.082,-393769,-425247,-443785,-431751,2,2,2,2
2025-08-21 11:55:17.082,-393850,-425329,-427418,-431833,2,2,2,2
2025-08-21 11:55:17.082,-393915,-425359,-427517,-431866,2,2,2,2
2025-08-21 11:55:17.082,-393973,-425447,-427290,-431892,2,2,2,2
2025-08-21 11:55:17.083,-393975,-409072,-427292,-440091,2,2,2,2
2025-08-21 11:55:17.083,-393966,-425448,-443666,-431890,2,2,2,2
2025-08-21 11:55:17.083,-393966,-409029,-427280,-448272,2,2,2,2
2025-08-21 11:55:17.084,-393931,-425375,-427275,-431884,2,2,2,2
2025-08-21 11:55:17.084,-393959,-425375,-443660,-431880,2,2,2,2
2025-08-21 11:55:17.084,-393882,-425428,-427519,-431866,2,2,2,2
2025-08-21 11:55:17.084,-393958,-425370,-443653,-431872,2,2,2,2
2025-08-21 11:55:17.085,-393966,-425372,-427274,-431873,2,2,2,2
2025-08-21 11:55:17.085,-393974,-425437,-427279,-448261,2,2,2,2
2025-08-21 11:55:17.085,-393982,-425449,-443669,-431886,2,2,2,2
2025-08-21 11:55:17.085,-393985,-425456,-427292,-448310,2,2,2,2
2025-08-21 11:55:17.086,-394004,-425481,-427373,-431915,2,2,2,2
2025-08-21 11:55:17.086,-394001,-425481,-443691,-431974,2,2,2,2
2025-08-21 11:55:17.086,-393993,-409091,-427367,-448353,2,2,2,2
2025-08-21 11:55:17.086,-393997,-425476,-443756,-431972,2,2,2,2
2025-08-21 11:55:17.087,-393996,-425478,-443760,-431978,2,2,2,2
2025-08-21 11:55:17.087,-394002,-409095,-427380,-431983,2,2,2,2
2025-08-21 11:55:17.087,-394001,-425481,-427383,-431921,2,2,2,2
2025-08-21 11:55:17.087,-393995,-425473,-427310,-431977,2,2,2,2
2025-08-21 11:55:17.088,-394007,-425479,-427385,-448370,2,2,2,2
2025-08-21 11:55:17.088,-394029,-425571,-443789,-432010,2,2,2,2
2025-08-21 11:55:17.088,-394102,-425582,-427411,-432081,2,2,2,2
2025-08-21 11:55:17.089,-394086,-425499,-427394,-431935,2,2,2,2
2025-08-21 11:55:17.089,-394003,-425480,-427376,-448331,2,2,2,2
2025-08-21 11:55:17.089,-393985,-425462,-443678,-431896,2,2,2,2
2025-08-21 11:55:17.089,-393977,-425450,-443704,-431893,2,2,2,2
2025-08-21 11:55:17.090,-393957,-408982,-427272,-440068,2,2,2,2
2025-08-21 11:55:17.090,-393928,-425370,-427274,-431875,2,2,2,2
2025-08-21 11:55:17.090,-393963,-425373,-427275,-431879,2,2,2,2
2025-08-21 11:55:17.090,-393960,-425436,-427273,-448259,2,2,2,2
2025-08-21 11:55:17.091,-393954,-425437,-427270,-448255,2,2,2,2
2025-08-21 11:55:17.091,-393958,-409026,-427273,-440065,2,2,2,2
2025-08-21 11:55:17.091,-393958,-425442,-427270,-431871,2,2,2,2
2025-08-21 11:55:17.091,-393926,-425443,-427269,-431871,2,2,2,2
2025-08-21 11:55:17.092,-393887,-425370,-427518,-431867,2,2,2,2
2025-08-21 11:55:17.092,-393941,-425358,-443893,-431855,2,2,2,2
2025-08-21 11:55:17.092,-393874,-425415,-427501,-431848,2,2,2,2
2025-08-21 11:55:17.092,-393934,-425347,-443881,-431844,2,2,2,2
2025-08-21 11:55:17.093,-393872,-408967,-427499,-448227,2,2,2,2
2025-08-21 11:55:17.093,-393875,-425420,-427506,-448200,2,2,2,2
2025-08-21 11:55:17.093,-393882,-425363,-427512,-431855,2,2,2,2
2025-08-21 11:55:17.093,-393953,-425433,-427518,-448245,2,2,2,2
2025-08-21 11:55:17.094,-393961,-425441,-443653,-431871,2,2,2,2
2025-08-21 11:55:17.094,-393930,-425445,-427272,-431876,2,2,2,2
2025-08-21 11:55:17.094,-393959,-425443,-427272,-448257,2,2,2,2
2025-08-21 11:55:17.094,-393955,-425375,-427274,-431868,2,2,2,2
2025-08-21 11:55:17.095,-393956,-425442,-427277,-448252,2,2,2,2
2025-08-21 11:55:17.095,-393885,-409021,-427272,-440052,2,2,2,2
2025-08-21 11:55:17.095,-393931,-425355,-427510,-431775,2,2,2,2
2025-08-21 11:55:17.095,-393856,-408891,-427495,-448146,2,2,2,2
2025-08-21 11:55:17.096,-393850,-425331,-443808,-431756,2,2,2,2
2025-08-21 11:55:17.096,-393845,-425259,-427416,-431818,2,2,2,2
2025-08-21 11:55:17.096,-393787,-425329,-443868,-431762,2,2,2,2
2025-08-21 11:55:17.097,-393843,-408904,-427410,-448140,2,2,2,2
2025-08-21 11:55:17.097,-393842,-425255,-427408,-448139,2,2,2,2
2025-08-21 11:55:17.097,-393777,-425319,-443794,-431755,2,2,2,2
2025-08-21 11:55:17.098,-393831,-425243,-427399,-431678,2,2,2,2
2025-08-21 11:55:17.098,-393832,-408855,-427398,-448126,2,2,2,2
2025-08-21 11:55:17.098,-393831,-408853,-427398,-448123,2,2,2,2
2025-08-21 11:55:17.098,-393764,-425236,-443782,-431734,2,2,2,2
2025-08-21 11:55:17.099,-393748,-425228,-443705,-431723,2,2,2,2
2025-08-21 11:55:17.099,-393748,-425226,-427387,-431661,2,2,2,2
2025-08-21 11:55:17.099,-393825,-425246,-427466,-431737,2,2,2,2
2025-08-21 11:55:17.100,-393842,-425265,-427418,-448141,2,2,2,2
2025-08-21 11:55:17.100,-393922,-425348,-443881,-431773,2,2,2,2
2025-08-21 11:55:17.100,-393871,-408982,-427516,-431856,2,2,2,2
2025-08-21 11:55:17.100,-393878,-425442,-427275,-431866,2,2,2,2
2025-08-21 11:55:17.101,-393888,-425452,-427283,-431874,2,2,2,2
2025-08-21 11:55:17.101,-393963,-425462,-427292,-431878,2,2,2,2
2025-08-21 11:55:17.101,-393977,-425475,-427365,-448305,2,2,2,2
2025-08-21 11:55:17.101,-393977,-425470,-443713,-431887,2,2,2,2
2025-08-21 11:55:17.102,-393980,-409086,-427366,-440081,2,2,2,2
2025-08-21 11:55:17.102,-393981,-409089,-427367,-448275,2,2,2,2
2025-08-21 11:55:17.102,-393984,-425472,-427305,-431892,2,2,2,2
2025-08-21 11:55:17.102,-393989,-425475,-427372,-448310,2,2,2,2
2025-08-21 11:55:17.103,-394000,-425481,-443766,-431971,2,2,2,2
2025-08-21 11:55:17.103,-394007,-409105,-427387,-440172,2,2,2,2
2025-08-21 11:55:17.103,-393999,-425478,-427378,-431906,2,2,2,2
2025-08-21 11:55:17.103,-393993,-425473,-427312,-431901,2,2,2,2
2025-08-21 11:55:17.104,-393993,-425469,-427312,-431898,2,2,2,2
2025-08-21 11:55:17.104,-394003,-425479,-427388,-448323,2,2,2,2
2025-08-21 11:55:17.104,-394009,-425481,-443712,-431975,2,2,2,2
2025-08-21 11:55:17.104,-393989,-409077,-427370,-440084,2,2,2,2
2025-08-21 11:55:17.105,-393973,-425449,-427289,-431881,2,2,2,2
2025-08-21 11:55:17.105,-393974,-425455,-427292,-431884,2,2,2,2
2025-08-21 11:55:17.105,-393968,-425453,-427293,-448263,2,2,2,2
2025-08-21 11:55:17.105,-393955,-425441,-443698,-431868,2,2,2,2
2025-08-21 11:55:17.106,-393949,-425369,-443658,-431860,2,2,2,2
2025-08-21 11:55:17.106,-393920,-425374,-443661,-431868,2,2,2,2
2025-08-21 11:55:17.106,-393925,-425375,-443664,-431870,2,2,2,2
2025-08-21 11:55:17.106,-393961,-425442,-427283,-431877,2,2,2,2
2025-08-21 11:55:17.107,-393956,-425441,-427277,-448258,2,2,2,2
2025-08-21 11:55:17.107,-393881,-425366,-427265,-431861,2,2,2,2
2025-08-21 11:55:17.107,-393859,-408960,-427499,-448227,2,2,2,2
2025-08-21 11:55:17.107,-393855,-425335,-427491,-431837,2,2,2,2
2025-08-21 11:55:17.108,-393788,-425332,-443803,-431769,2,2,2,2
2025-08-21 11:55:17.108,-393835,-425316,-427400,-431812,2,2,2,2
2025-08-21 11:55:17.108,-393756,-425241,-427386,-431670,2,2,2,2
2025-08-21 11:55:17.108,-393751,-425234,-443698,-431727,2,2,2,2
2025-08-21 11:55:17.109,-393760,-408854,-427385,-448118,2,2,2,2
2025-08-21 11:55:17.109,-393764,-425237,-443772,-431732,2,2,2,2
2025-08-21 11:55:17.109,-393839,-425250,-427401,-448063,2,2,2,2
2025-08-21 11:55:17.110,-393847,-425321,-427412,-431818,2,2,2,2
2025-08-21 11:55:17.110,-393854,-425263,-427420,-448180,2,2,2,2
2025-08-21 11:55:17.110,-393866,-425340,-427492,-431838,2,2,2,2
2025-08-21 11:55:17.110,-393929,-425334,-443805,-431768,2,2,2,2
2025-08-21 11:55:17.111,-393844,-408900,-427408,-448132,2,2,2,2
2025-08-21 11:55:17.111,-393768,-425241,-427466,-431742,2,2,2,2
2025-08-21 11:55:17.111,-393759,-425234,-427461,-431737,2,2,2,2
2025-08-21 11:55:17.112,-393738,-425472,-427380,-448070,2,2,2,2
2025-08-21 11:55:17.112,-393979,-425459,-427365,-431638,2,2,2,2
2025-08-21 11:55:17.112,-393966,-409062,-427287,-439819,2,2,2,2
2025-08-21 11:55:17.112,-393960,-425371,-427280,-431617,2,2,2,2
2025-08-21 11:55:17.113,-393888,-425358,-427270,-431862,2,2,2,2
2025-08-21 11:55:17.113,-393961,-425360,-443655,-431866,2,2,2,2
2025-08-21 11:55:17.113,-393966,-425362,-443659,-431865,2,2,2,2
2025-08-21 11:55:17.114,-393887,-425348,-427257,-431853,2,2,2,2
2025-08-21 11:55:17.114,-393915,-425343,-443634,-431849,2,2,2,2
2025-08-21 11:55:17.114,-393961,-425359,-427265,-431863,2,2,2,2
2025-08-21 11:55:17.114,-393984,-425446,-427287,-448013,2,2,2,2
2025-08-21 11:55:17.115,-393730,-425452,-443711,-431634,2,2,2,2
2025-08-21 11:55:17.115,-393735,-425460,-427363,-431638,2,2,2,2
2025-08-21 11:55:17.115,-393737,-425463,-427364,-431638,2,2,2,2
2025-08-21 11:55:17.115,-393734,-425463,-427302,-431633,2,2,2,2
2025-08-21 11:55:17.116,-393737,-425467,-427372,-448052,2,2,2,2
2025-08-21 11:55:17.116,-393738,-425469,-443726,-431637,2,2,2,2
2025-08-21 11:55:17.116,-393730,-425461,-443724,-431631,2,2,2,2
2025-08-21 11:55:17.116,-393978,-409036,-427361,-448004,2,2,2,2
2025-08-21 11:55:17.117,-393984,-425459,-427364,-431627,2,2,2,2
2025-08-21 11:55:17.117,-393745,-425220,-427380,-448059,2,2,2,2
2025-08-21 11:55:17.117,-393753,-425230,-427384,-448068,2,2,2,2
2025-08-21 11:55:17.117,-393756,-425231,-443768,-431717,2,2,2,2
2025-08-21 11:55:17.118,-393751,-408845,-427381,-439839,2,2,2,2
2025-08-21 11:55:17.118,-393744,-408838,-427375,-448023,2,2,2,2
2025-08-21 11:55:17.118,-393742,-425218,-443755,-431636,2,2,2,2
2025-08-21 11:55:17.119,-393729,-425460,-427293,-431627,2,2,2,2
2025-08-21 11:55:17.119,-393984,-425461,-443678,-431628,2,2,2,2
2025-08-21 11:55:17.119,-393733,-409085,-427366,-448017,2,2,2,2
2025-08-21 11:55:17.119,-393981,-425462,-443678,-431626,2,2,2,2
2025-08-21 11:55:17.120,-393953,-425363,-427261,-431854,2,2,2,2
2025-08-21 11:55:17.120,-393865,-425278,-427237,-448217,2,2,2,2
2025-08-21 11:55:17.120,-393855,-425331,-427166,-431822,2,2,2,2
2025-08-21 11:55:17.120,-393785,-425330,-427227,-431752,2,2,2,2
2025-08-21 11:55:17.121,-393852,-425276,-427234,-448140,2,2,2,2
2025-08-21 11:55:17.121,-393931,-425355,-443633,-431774,2,2,2,2
2025-08-21 11:55:17.121,-393882,-425436,-427260,-431852,2,2,2,2
2025-08-21 11:55:17.122,-393946,-425375,-427260,-431852,2,2,2,2
2025-08-21 11:55:17.122,-393875,-425369,-427255,-431847,2,2,2,2
2025-08-21 11:55:17.122,-393886,-425448,-427267,-448247,2,2,2,2
2025-08-21 11:55:17.122,-393979,-425471,-443675,-431631,2,2,2,2
2025-08-21 11:55:17.123,-393741,-408846,-427376,-431648,2,2,2,2
2025-08-21 11:55:17.123,-393785,-425239,-427390,-431662,2,2,2,2
2025-08-21 11:55:17.123,-393826,-425245,-427460,-431734,2,2,2,2
2025-08-21 11:55:17.123,-393834,-425254,-427402,-448126,2,2,2,2
2025-08-21 11:55:17.124,-393843,-425267,-427418,-448141,2,2,2,2
2025-08-21 11:55:17.124,-393854,-408954,-427493,-439958,2,2,2,2
2025-08-21 11:55:17.124,-393931,-425350,-443894,-431842,2,2,2,2
2025-08-21 11:55:17.124,-393857,-425339,-427499,-431831,2,2,2,2
2025-08-21 11:55:17.125,-393805,-425321,-443798,-431748,2,2,2,2
2025-08-21 11:55:17.125,-393833,-425250,-427410,-448064,2,2,2,2
2025-08-21 11:55:17.125,-393772,-425316,-443829,-431747,2,2,2,2
2025-08-21 11:55:17.125,-393839,-408938,-427418,-439943,2,2,2,2
2025-08-21 11:55:17.126,-393842,-408912,-427421,-448138,2,2,2,2
2025-08-21 11:55:17.126,-393839,-425324,-427475,-431749,2,2,2,2
2025-08-21 11:55:17.126,-393840,-425320,-427472,-431747,2,2,2,2
2025-08-21 11:55:17.126,-393834,-425251,-427403,-448127,2,2,2,2
2025-08-21 11:55:17.127,-393834,-425316,-427405,-431680,2,2,2,2
2025-08-21 11:55:17.127,-393844,-408879,-427419,-448140,2,2,2,2
2025-08-21 11:55:17.127,-393850,-425331,-427490,-431824,2,2,2,2
2025-08-21 11:55:17.127,-393850,-425329,-427486,-431756,2,2,2,2
2025-08-21 11:55:17.128,-393832,-408892,-427408,-439924,2,2,2,2
2025-08-21 11:55:17.128,-393759,-425239,-443849,-431722,2,2,2,2
2025-08-21 11:55:17.128,-393833,-408895,-427409,-448111,2,2,2,2
2025-08-21 11:55:17.129,-393841,-425253,-427419,-448121,2,2,2,2
2025-08-21 11:55:17.129,-393921,-425335,-443853,-431758,2,2,2,2
2025-08-21 11:55:17.129,-393863,-425278,-427508,-448214,2,2,2,2
2025-08-21 11:55:17.129,-393862,-425346,-427512,-431830,2,2,2,2
2025-08-21 11:55:17.130,-393934,-425354,-427266,-431772,2,2,2,2
2025-08-21 11:55:17.130,-393882,-425371,-427283,-431851,2,2,2,2
2025-08-21 11:55:17.130,-393963,-425454,-443746,-431867,2,2,2,2
2025-08-21 11:55:17.131,-393966,-425459,-427365,-431869,2,2,2,2
2025-08-21 11:55:17.131,-393966,-425455,-427296,-431870,2,2,2,2
2025-08-21 11:55:17.131,-393958,-409066,-427286,-448248,2,2,2,2
2025-08-21 11:55:17.131,-393973,-425465,-427365,-448260,2,2,2,2
2025-08-21 11:55:17.132,-393988,-425481,-443760,-431891,2,2,2,2
2025-08-21 11:55:17.132,-393993,-425488,-427385,-431899,2,2,2,2
2025-08-21 11:55:17.132,-393994,-425487,-427386,-431900,2,2,2,2
2025-08-21 11:55:17.132,-393993,-425485,-427321,-431903,2,2,2,2
2025-08-21 11:55:17.133,-394007,-425499,-427467,-431986,2,2,2,2
2025-08-21 11:55:17.133,-394008,-425497,-443786,-431987,2,2,2,2
2025-08-21 11:55:17.133,-394092,-409160,-427417,-440198,2,2,2,2
2025-08-21 11:55:17.134,-394105,-425584,-427489,-432079,2,2,2,2
2025-08-21 11:55:17.134,-394113,-425600,-443880,-432024,2,2,2,2
2025-08-21 11:55:17.134,-394112,-425665,-427500,-448434,2,2,2,2
2025-08-21 11:55:17.134,-394126,-425673,-427513,-448477,2,2,2,2
2025-08-21 11:55:17.135,-394197,-425615,-443903,-432098,2,2,2,2
2025-08-21 11:55:17.135,-394138,-409271,-427528,-448488,2,2,2,2
2025-08-21 11:55:17.135,-394138,-425623,-427529,-432107,2,2,2,2
2025-08-21 11:55:17.135,-394121,-425606,-427511,-432029,2,2,2,2
2025-08-21 11:55:17.136,-394113,-425531,-427500,-448466,2,2,2,2
2025-08-21 11:55:17.136,-394190,-425605,-443894,-432029,2,2,2,2
2025-08-21 11:55:17.136,-394142,-409274,-427529,-440307,2,2,2,2
2025-08-21 11:55:17.136,-394144,-409309,-427533,-448506,2,2,2,2
2025-08-21 11:55:17.137,-394127,-425618,-427518,-432110,2,2,2,2
2025-08-21 11:55:17.137,-394119,-425674,-427510,-448447,2,2,2,2
2025-08-21 11:55:17.137,-394116,-425668,-427504,-432091,2,2,2,2
2025-08-21 11:55:17.137,-394043,-425595,-443877,-432021,2,2,2,2
2025-08-21 11:55:17.138,-394108,-409147,-427491,-448404,2,2,2,2
2025-08-21 11:55:17.138,-394024,-425573,-443789,-432002,2,2,2,2
2025-08-21 11:55:17.139,-394013,-425495,-427392,-431924,2,2,2,2
2025-08-21 11:55:17.139,-394082,-425500,-427401,-448379,2,2,2,2
2025-08-21 11:55:17.139,-394015,-425495,-427391,-448374,2,2,2,2
2025-08-21 11:55:17.139,-393993,-425472,-443753,-431904,2,2,2,2
2025-08-21 11:55:17.140,-393979,-425459,-427289,-431894,2,2,2,2
2025-08-21 11:55:17.140,-393974,-425454,-427283,-431893,2,2,2,2
2025-08-21 11:55:17.140,-393975,-425459,-427286,-431896,2,2,2,2
2025-08-21 11:55:17.141,-393988,-425472,-427364,-448322,2,2,2,2
2025-08-21 11:55:17.141,-393988,-425469,-443683,-431969,2,2,2,2
2025-08-21 11:55:17.141,-393977,-409082,-427296,-440091,2,2,2,2
2025-08-21 11:55:17.141,-393975,-425466,-427362,-431898,2,2,2,2
2025-08-21 11:55:17.142,-393972,-425469,-427301,-431898,2,2,2,2
2025-08-21 11:55:17.142,-393977,-425473,-427370,-448315,2,2,2,2
2025-08-21 11:55:17.142,-393958,-425454,-427291,-448263,2,2,2,2
2025-08-21 11:55:17.142,-393924,-425355,-443896,-431844,2,2,2,2
2025-08-21 11:55:17.143,-393850,-408963,-427504,-439967,2,2,2,2
2025-08-21 11:55:17.143,-393844,-425345,-443885,-431772,2,2,2,2
2025-08-21 11:55:17.143,-393752,-425319,-427472,-431743,2,2,2,2
2025-08-21 11:55:17.143,-393740,-425235,-427389,-448078,2,2,2,2
2025-08-21 11:55:17.144,-393979,-425220,-443725,-431644,2,2,2,2
2025-08-21 11:55:17.144,-393959,-425459,-427290,-431621,2,2,2,2
2025-08-21 11:55:17.144,-393869,-425366,-427263,-431852,2,2,2,2
2025-08-21 11:55:17.144,-393858,-425354,-427249,-431841,2,2,2,2
2025-08-21 11:55:17.145,-393846,-425346,-427238,-431768,2,2,2,2
2025-08-21 11:55:17.145,-393847,-408965,-427242,-439958,2,2,2,2
2025-08-21 11:55:17.145,-393926,-425364,-443641,-431845,2,2,2,2
2025-08-21 11:55:17.145,-393860,-409016,-427260,-440040,2,2,2,2
2025-08-21 11:55:17.146,-393861,-425370,-427260,-431849,2,2,2,2
2025-08-21 11:55:17.146,-393932,-425373,-443646,-431850,2,2,2,2
2025-08-21 11:55:17.146,-393883,-425452,-427278,-431864,2,2,2,2
2025-08-21 11:55:17.147,-393957,-425461,-443674,-431872,2,2,2,2
2025-08-21 11:55:17.147,-393967,-425469,-427364,-448011,2,2,2,2
2025-08-21 11:55:17.147,-393735,-425237,-443773,-431717,2,2,2,2
2025-08-21 11:55:17.148,-393829,-408944,-427414,-431744,2,2,2,2
2025-08-21 11:55:17.148,-393841,-408956,-427491,-439944,2,2,2,2
2025-08-21 11:55:17.148,-393845,-425346,-427494,-431759,2,2,2,2
2025-08-21 11:55:17.148,-393834,-425270,-427416,-448132,2,2,2,2
2025-08-21 11:55:17.149,-393769,-425330,-443794,-431746,2,2,2,2
2025-08-21 11:55:17.149,-393757,-425253,-427398,-431667,2,2,2,2
2025-08-21 11:55:17.149,-393749,-425244,-427388,-431656,2,2,2,2
2025-08-21 11:55:17.149,-393754,-425247,-427459,-431728,2,2,2,2
2025-08-21 11:55:17.150,-393760,-425315,-427462,-431732,2,2,2,2
2025-08-21 11:55:17.150,-393825,-425316,-427461,-431733,2,2,2,2
2025-08-21 11:55:17.150,-393774,-425332,-443827,-431747,2,2,2,2
2025-08-21 11:55:17.150,-393851,-408961,-427424,-439955,2,2,2,2
2025-08-21 11:55:17.151,-393857,-425351,-427492,-431831,2,2,2,2
2025-08-21 11:55:17.151,-393856,-425350,-427491,-431831,2,2,2,2
2025-08-21 11:55:17.151,-393856,-425411,-427492,-448182,2,2,2,2
2025-08-21 11:55:17.151,-393923,-425350,-443878,-431770,2,2,2,2
2025-08-21 11:55:17.152,-393925,-425354,-443847,-431773,2,2,2,2
2025-08-21 11:55:17.152,-393846,-408953,-427414,-439949,2,2,2,2
2025-08-21 11:55:17.152,-393808,-425334,-427408,-431816,2,2,2,2
2025-08-21 11:55:17.152,-393851,-425343,-427487,-431761,2,2,2,2
2025-08-21 11:55:17.153,-393869,-425424,-427504,-448192,2,2,2,2
2025-08-21 11:55:17.153,-393934,-425359,-443853,-431843,2,2,2,2
2025-08-21 11:55:17.153,-393864,-408968,-427491,-439963,2,2,2,2
2025-08-21 11:55:17.154,-393867,-425357,-427498,-431838,2,2,2,2
2025-08-21 11:55:17.154,-393918,-425375,-443900,-431855,2,2,2,2
2025-08-21 11:55:17.154,-393954,-425447,-427519,-431859,2,2,2,2
2025-08-21 11:55:17.155,-393946,-425443,-443902,-431859,2,2,2,2
2025-08-21 11:55:17.155,-393887,-409032,-427266,-440056,2,2,2,2
2025-08-21 11:55:17.155,-393879,-425443,-427514,-431859,2,2,2,2
2025-08-21 11:55:17.155,-393869,-425372,-427503,-431852,2,2,2,2
2025-08-21 11:55:17.156,-393857,-425423,-427492,-448191,2,2,2,2
2025-08-21 11:55:17.156,-393854,-425419,-427489,-431833,2,2,2,2
2025-08-21 11:55:17.156,-393858,-409040,-427494,-448155,2,2,2,2
2025-08-21 11:55:17.156,-393859,-409044,-427493,-448154,2,2,2,2
2025-08-21 11:55:17.156,-393870,-425374,-443891,-431847,2,2,2,2
2025-08-21 11:55:17.157,-393847,-425355,-427489,-431833,2,2,2,2
2025-08-21 11:55:17.157,-393778,-425354,-443875,-431773,2,2,2,2
2025-08-21 11:55:17.157,-393825,-425339,-427475,-431760,2,2,2,2
2025-08-21 11:55:17.158,-393747,-425264,-427400,-448135,2,2,2,2
2025-08-21 11:55:17.158,-393745,-425316,-427397,-431809,2,2,2,2
2025-08-21 11:55:17.159,-393984,-425241,-427317,-431731,2,2,2,2
2025-08-21 11:55:17.159,-393982,-425237,-443757,-431727,2,2,2,2
2025-08-21 11:55:17.159,-393734,-425246,-443765,-431737,2,2,2,2
2025-08-21 11:55:17.159,-393747,-425321,-443776,-431746,2,2,2,2
2025-08-21 11:55:17.160,-393754,-408947,-427400,-439943,2,2,2,2
2025-08-21 11:55:17.160,-393834,-409028,-427416,-448147,2,2,2,2
2025-08-21 11:55:17.160,-393850,-425359,-427494,-431774,2,2,2,2
2025-08-21 11:55:17.160,-393859,-425438,-427506,-448206,2,2,2,2
2025-08-21 11:55:17.161,-393922,-425374,-443888,-431849,2,2,2,2
2025-08-21 11:55:17.161,-393856,-425372,-427503,-431843,2,2,2,2
2025-08-21 11:55:17.161,-393851,-408973,-427492,-439963,2,2,2,2
2025-08-21 11:55:17.161,-393852,-425352,-427423,-431837,2,2,2,2
2025-08-21 11:55:17.162,-393857,-425356,-427493,-431842,2,2,2,2
2025-08-21 11:55:17.162,-393863,-425425,-427495,-448225,2,2,2,2
2025-08-21 11:55:17.162,-393786,-425351,-443832,-431762,2,2,2,2
2025-08-21 11:55:17.162,-393759,-408909,-427387,-439926,2,2,2,2
2025-08-21 11:55:17.163,-393734,-425240,-427366,-431648,2,2,2,2
2025-08-21 11:55:17.163,-393973,-425227,-443672,-431633,2,2,2,2
2025-08-21 11:55:17.163,-393960,-425218,-427277,-431624,2,2,2,2
2025-08-21 11:55:17.163,-393958,-425472,-427275,-448006,2,2,2,2
2025-08-21 11:55:17.164,-393959,-425472,-443663,-431628,2,2,2,2
2025-08-21 11:55:17.164,-393972,-425224,-427295,-431644,2,2,2,2
2025-08-21 11:55:17.164,-393730,-425235,-427375,-448110,2,2,2,2
2025-08-21 11:55:17.164,-393741,-425245,-427320,-431736,2,2,2,2
2025-08-21 11:55:17.165,-393758,-425261,-427396,-448136,2,2,2,2
2025-08-21 11:55:17.165,-393771,-425336,-443856,-431762,2,2,2,2
2025-08-21 11:55:17.165,-393786,-425349,-427485,-431844,2,2,2,2
2025-08-21 11:55:17.165,-393856,-409038,-427492,-448233,2,2,2,2
2025-08-21 11:55:17.166,-393858,-425362,-443876,-431851,2,2,2,2
2025-08-21 11:55:17.166,-393921,-425359,-443873,-431852,2,2,2,2
2025-08-21 11:55:17.166,-393855,-425414,-427422,-448234,2,2,2,2
2025-08-21 11:55:17.166,-393779,-425341,-443859,-431842,2,2,2,2
2025-08-21 11:55:17.167,-393836,-408949,-427402,-448152,2,2,2,2
2025-08-21 11:55:17.167,-393849,-425412,-427416,-448231,2,2,2,2
2025-08-21 11:55:17.167,-393929,-425367,-443882,-431864,2,2,2,2
2025-08-21 11:55:17.168,-393989,-425491,-427365,-431923,2,2,2,2
2025-08-21 11:55:17.168,-394009,-425574,-427321,-432004,2,2,2,2
2025-08-21 11:55:17.168,-394016,-409131,-427389,-448392,2,2,2,2
2025-08-21 11:55:17.168,-394010,-425574,-443766,-432002,2,2,2,2
2025-08-21 11:55:17.169,-394014,-409202,-427390,-440203,2,2,2,2
2025-08-21 11:55:17.169,-394011,-425581,-427388,-432072,2,2,2,2
2025-08-21 11:55:17.169,-394009,-425576,-427324,-432005,2,2,2,2
2025-08-21 11:55:17.170,-394000,-425500,-427380,-448380,2,2,2,2
2025-08-21 11:55:17.170,-393993,-425493,-443754,-431988,2,2,2,2
2025-08-21 11:55:17.170,-393992,-409107,-427367,-431985,2,2,2,2
2025-08-21 11:55:17.170,-393994,-425494,-427370,-431920,2,2,2,2
2025-08-21 11:55:17.171,-393981,-425480,-427294,-431970,2,2,2,2
2025-08-21 11:55:17.171,-393973,-425474,-427286,-448313,2,2,2,2
2025-08-21 11:55:17.171,-393971,-425473,-427282,-448307,2,2,2,2
2025-08-21 11:55:17.171,-393976,-425476,-443699,-431894,2,2,2,2
2025-08-21 11:55:17.172,-393989,-409140,-427361,-440166,2,2,2,2
2025-08-21 11:55:17.172,-393992,-425491,-443745,-431979,2,2,2,2
2025-08-21 11:55:17.172,-393981,-425483,-427286,-431972,2,2,2,2
2025-08-21 11:55:17.172,-393989,-425491,-427363,-448335,2,2,2,2
2025-08-21 11:55:17.173,-393996,-425502,-443721,-431989,2,2,2,2
2025-08-21 11:55:17.173,-393995,-409146,-427367,-448367,2,2,2,2
2025-08-21 11:55:17.173,-393989,-409140,-427295,-448360,2,2,2,2
2025-08-21 11:55:17.173,-393983,-425486,-427290,-431908,2,2,2,2
2025-08-21 11:55:17.174,-393990,-425496,-443752,-431983,2,2,2,2
2025-08-21 11:55:17.174,-393989,-425497,-427369,-431920,2,2,2,2
2025-08-21 11:55:17.174,-393988,-425494,-443683,-431981,2,2,2,2
2025-08-21 11:55:17.174,-393982,-409140,-427290,-440169,2,2,2,2
2025-08-21 11:55:17.175,-393985,-409110,-427293,-448363,2,2,2,2
2025-08-21 11:55:17.175,-393998,-425502,-427368,-448372,2,2,2,2
2025-08-21 11:55:17.175,-393987,-425489,-427293,-431911,2,2,2,2
2025-08-21 11:55:17.176,-393969,-425472,-427278,-431896,2,2,2,2
2025-08-21 11:55:17.176,-393928,-425468,-443657,-431890,2,2,2,2
2025-08-21 11:55:17.176,-393915,-425451,-443899,-431878,2,2,2,2
2025-08-21 11:55:17.176,-393873,-425373,-427504,-431863,2,2,2,2
2025-08-21 11:55:17.177,-393855,-425350,-427423,-431843,2,2,2,2
2025-08-21 11:55:17.177,-393786,-425347,-427484,-431774,2,2,2,2
2025-08-21 11:55:17.177,-393850,-425413,-427421,-448158,2,2,2,2
2025-08-21 11:55:17.178,-393860,-425428,-427498,-448201,2,2,2,2
2025-08-21 11:55:17.178,-393869,-408988,-427505,-431857,2,2,2,2
2025-08-21 11:55:17.178,-393874,-425436,-427506,-431861,2,2,2,2
2025-08-21 11:55:17.178,-393943,-425444,-427512,-431867,2,2,2,2
2025-08-21 11:55:17.179,-393874,-425442,-427511,-431869,2,2,2,2
2025-08-21 11:55:17.179,-393933,-425373,-443889,-431865,2,2,2,2
2025-08-21 11:55:17.179,-393932,-425370,-443882,-431863,2,2,2,2
2025-08-21 11:55:17.179,-393951,-425455,-443901,-431882,2,2,2,2
2025-08-21 11:55:17.180,-393885,-425453,-427512,-431878,2,2,2,2
2025-08-21 11:55:17.180,-393879,-425447,-427508,-431869,2,2,2,2
2025-08-21 11:55:17.180,-393861,-425432,-427493,-448239,2,2,2,2
2025-08-21 11:55:17.180,-393859,-425429,-427492,-448204,2,2,2,2
2025-08-21 11:55:17.181,-393790,-425360,-443834,-431845,2,2,2,2
2025-08-21 11:55:17.181,-393850,-425357,-427415,-431841,2,2,2,2
2025-08-21 11:55:17.181,-393851,-425360,-427418,-431844,2,2,2,2
2025-08-21 11:55:17.181,-393801,-425338,-443785,-431824,2,2,2,2
2025-08-21 11:55:17.182,-393753,-425261,-427389,-448135,2,2,2,2
2025-08-21 11:55:17.182,-393739,-425249,-427377,-448060,2,2,2,2
2025-08-21 11:55:17.182,-393980,-408848,-427296,-439913,2,2,2,2
2025-08-21 11:55:17.182,-393971,-408843,-427290,-448098,2,2,2,2
2025-08-21 11:55:17.183,-393731,-425240,-427370,-431665,2,2,2,2
2025-08-21 11:55:17.183,-393748,-425319,-443768,-431749,2,2,2,2
2025-08-21 11:55:17.183,-393757,-425260,-427393,-448204,2,2,2,2
2025-08-21 11:55:17.183,-393759,-425327,-427393,-431822,2,2,2,2
2025-08-21 11:55:17.184,-393780,-425351,-427479,-431843,2,2,2,2
2025-08-21 11:55:17.184,-393870,-425442,-427509,-431869,2,2,2,2
2025-08-21 11:55:17.184,-393953,-425456,-427273,-431885,2,2,2,2
2025-08-21 11:55:17.185,-393984,-425482,-427295,-431908,2,2,2,2
2025-08-21 11:55:17.185,-393988,-425486,-443682,-431976,2,2,2,2
2025-08-21 11:55:17.185,-393994,-409137,-427366,-448368,2,2,2,2
2025-08-21 11:55:17.185,-394004,-425504,-427382,-448379,2,2,2,2
2025-08-21 11:55:17.186,-394083,-425582,-427459,-432008,2,2,2,2
2025-08-21 11:55:17.186,-394091,-425527,-427401,-448462,2,2,2,2
2025-08-21 11:55:17.186,-394101,-425606,-427409,-432089,2,2,2,2
2025-08-21 11:55:17.186,-394107,-425614,-427479,-432032,2,2,2,2
2025-08-21 11:55:17.187,-394101,-425670,-427408,-448413,2,2,2,2
2025-08-21 11:55:17.187,-394119,-425680,-427420,-432111,2,2,2,2
2025-08-21 11:55:17.188,-394195,-425628,-427497,-432122,2,2,2,2
2025-08-21 11:55:17.188,-394142,-425702,-427511,-448263,2,2,2,2
2025-08-21 11:55:17.188,-394211,-425708,-427523,-448272,2,2,2,2
2025-08-21 11:55:17.188,-394205,-425705,-443904,-431884,2,2,2,2
2025-08-21 11:55:17.189,-394132,-425694,-427513,-431876,2,2,2,2
2025-08-21 11:55:17.189,-394166,-425630,-427514,-431874,2,2,2,2
2025-08-21 11:55:17.189,-394124,-409267,-427506,-448505,2,2,2,2
2025-08-21 11:55:17.189,-394110,-425672,-427491,-448493,2,2,2,2
2025-08-21 11:55:17.190,-394040,-425606,-443807,-432104,2,2,2,2
2025-08-21 11:55:17.190,-394095,-409216,-427408,-440223,2,2,2,2
2025-08-21 11:55:17.190,-394083,-409168,-427390,-440206,2,2,2,2
2025-08-21 11:55:17.190,-394000,-425504,-427372,-431932,2,2,2,2
2025-08-21 11:55:17.191,-393977,-409098,-427285,-448359,2,2,2,2
2025-08-21 11:55:17.191,-393966,-425471,-427274,-448288,2,2,2,2
2025-08-21 11:55:17.191,-393955,-425463,-443652,-431894,2,2,2,2
2025-08-21 11:55:17.191,-393881,-409070,-427518,-440079,2,2,2,2
2025-08-21 11:55:17.192,-393879,-425449,-427517,-431885,2,2,2,2
2025-08-21 11:55:17.192,-393883,-425457,-427269,-448306,2,2,2,2
2025-08-21 11:55:17.192,-393967,-425475,-427290,-431970,2,2,2,2
2025-08-21 11:55:17.192,-393978,-425484,-443749,-431978,2,2,2,2
2025-08-21 11:55:17.193,-393971,-409092,-427292,-431969,2,2,2,2
2025-08-21 11:55:17.193,-393962,-425469,-427282,-431897,2,2,2,2
2025-08-21 11:55:17.193,-393923,-425461,-427277,-431895,2,2,2,2
2025-08-21 11:55:17.193,-393954,-425458,-427277,-431896,2,2,2,2
2025-08-21 11:55:17.194,-393974,-409094,-427296,-440169,2,2,2,2
2025-08-21 11:55:17.194,-393990,-409143,-427379,-448379,2,2,2,2
2025-08-21 11:55:17.194,-394009,-425575,-427396,-432077,2,2,2,2
2025-08-21 11:55:17.195,-394055,-425587,-443794,-432022,2,2,2,2
2025-08-21 11:55:17.195,-394114,-425678,-427503,-448494,2,2,2,2
2025-08-21 11:55:17.195,-394181,-425622,-443893,-432118,2,2,2,2
2025-08-21 11:55:17.196,-394110,-425612,-427498,-432110,2,2,2,2
2025-08-21 11:55:17.196,-394112,-425609,-443878,-432109,2,2,2,2
2025-08-21 11:55:17.196,-394108,-425602,-427486,-432107,2,2,2,2
2025-08-21 11:55:17.196,-394101,-425530,-427412,-448454,2,2,2,2
2025-08-21 11:55:17.197,-394089,-425583,-427402,-432091,2,2,2,2
2025-08-21 11:55:17.197,-394087,-409165,-427401,-448414,2,2,2,2
2025-08-21 11:55:17.197,-394083,-409132,-427396,-448410,2,2,2,2
2025-08-21 11:55:17.197,-394041,-425571,-443770,-432016,2,2,2,2
2025-08-21 11:55:17.198,-394003,-425569,-443764,-432009,2,2,2,2
2025-08-21 11:55:17.198,-394003,-425570,-427382,-432075,2,2,2,2
2025-08-21 11:55:17.198,-394014,-425583,-443844,-432021,2,2,2,2
2025-08-21 11:55:17.198,-394082,-409203,-427402,-448409,2,2,2,2
2025-08-21 11:55:17.199,-394087,-425528,-427409,-448413,2,2,2,2
2025-08-21 11:55:17.199,-394095,-425665,-427419,-448455,2,2,2,2
2025-08-21 11:55:17.199,-394140,-425707,-427528,-431884,2,2,2,2
2025-08-21 11:55:17.200,-394214,-425719,-427538,-431897,2,2,2,2
2025-08-21 11:55:17.200,-394223,-425474,-427546,-431969,2,2,2,2
2025-08-21 11:55:17.200,-394226,-425480,-443934,-431973,2,2,2,2
2025-08-21 11:55:17.200,-394219,-425728,-443961,-431903,2,2,2,2
2025-08-21 11:55:17.201,-394213,-409338,-427537,-440089,2,2,2,2
2025-08-21 11:55:17.201,-394203,-425713,-427534,-431888,2,2,2,2
2025-08-21 11:55:17.201,-394209,-409335,-427539,-448275,2,2,2,2
2025-08-21 11:55:17.201,-394137,-425716,-427535,-448269,2,2,2,2
2025-08-21 11:55:17.202,-394188,-425704,-443906,-431875,2,2,2,2
2025-08-21 11:55:17.202,-394109,-409237,-427502,-440308,2,2,2,2
2025-08-21 11:55:17.202,-394101,-425616,-427495,-432109,2,2,2,2
2025-08-21 11:55:17.202,-394099,-425613,-427492,-432108,2,2,2,2
2025-08-21 11:55:17.203,-394083,-425592,-427475,-432024,2,2,2,2
2025-08-21 11:55:17.203,-393999,-425512,-427391,-448389,2,2,2,2
2025-08-21 11:55:17.203,-393988,-425501,-443764,-431996,2,2,2,2
2025-08-21 11:55:17.203,-393991,-425570,-443701,-431998,2,2,2,2
2025-08-21 11:55:17.204,-393980,-425495,-427368,-431920,2,2,2,2
2025-08-21 11:55:17.204,-393964,-425475,-427291,-448317,2,2,2,2
2025-08-21 11:55:17.204,-393967,-425473,-427290,-448283,2,2,2,2
2025-08-21 11:55:17.205,-393953,-425459,-443660,-431885,2,2,2,2
2025-08-21 11:55:17.205,-393926,-425466,-427283,-431891,2,2,2,2
2025-08-21 11:55:17.205,-393932,-425473,-427291,-431893,2,2,2,2
2025-08-21 11:55:17.208,-393968,-425474,-427296,-431898,2,2,2,2
2025-08-21 11:55:17.209,-393960,-425467,-427293,-448276,2,2,2,2
2025-08-21 11:55:17.209,-393966,-425474,-427299,-431900,2,2,2,2
2025-08-21 11:55:17.209,-393984,-425488,-427309,-431977,2,2,2,2
2025-08-21 11:55:17.209,-394007,-409126,-427396,-448385,2,2,2,2
2025-08-21 11:55:17.209,-394031,-425594,-443805,-432027,2,2,2,2
2025-08-21 11:55:17.210,-394101,-425665,-427489,-432098,2,2,2,2
2025-08-21 11:55:17.210,-394094,-425527,-427419,-432091,2,2,2,2
2025-08-21 11:55:17.210,-394042,-425606,-443880,-432105,2,2,2,2
2025-08-21 11:55:17.210,-394117,-409297,-427511,-448504,2,2,2,2
2025-08-21 11:55:17.210,-394188,-425628,-443907,-431874,2,2,2,2
2025-08-21 11:55:17.210,-394046,-425621,-443896,-432120,2,2,2,2
2025-08-21 11:55:17.211,-394118,-425697,-427521,-432128,2,2,2,2
2025-08-21 11:55:17.211,-394130,-425709,-427532,-448266,2,2,2,2
2025-08-21 11:55:17.211,-394120,-425698,-427520,-432126,2,2,2,2
2025-08-21 11:55:17.211,-394044,-425618,-443886,-432111,2,2,2,2
2025-08-21 11:55:17.211,-394014,-425589,-427474,-432020,2,2,2,2
2025-08-21 11:55:17.212,-394008,-425583,-427405,-432078,2,2,2,2
2025-08-21 11:55:17.212,-394085,-425591,-427481,-432025,2,2,2,2
2025-08-21 11:55:17.212,-394091,-425534,-427489,-448450,2,2,2,2
2025-08-21 11:55:17.212,-394024,-425599,-443839,-432098,2,2,2,2
2025-08-21 11:55:17.213,-394011,-409200,-427410,-440210,2,2,2,2
2025-08-21 11:55:17.213,-393989,-425495,-427390,-431930,2,2,2,2
2025-08-21 11:55:17.214,-393980,-425485,-427316,-431985,2,2,2,2
2025-08-21 11:55:17.216,-394003,-425510,-427407,-448392,2,2,2,2
2025-08-21 11:55:17.217,-394032,-425604,-443890,-432101,2,2,2,2
2025-08-21 11:55:17.218,-394103,-409232,-427516,-440303,2,2,2,2
2025-08-21 11:55:17.219,-394119,-425699,-427530,-431873,2,2,2,2
2025-08-21 11:55:17.220,-394132,-425711,-427541,-431887,2,2,2,2
2025-08-21 11:55:17.221,-394125,-425706,-427532,-448267,2,2,2,2
2025-08-21 11:55:17.221,-394183,-425701,-443910,-431876,2,2,2,2
2025-08-21 11:55:17.222,-394111,-425631,-427514,-432125,2,2,2,2
2025-08-21 11:55:17.222,-394105,-425626,-427510,-432119,2,2,2,2
2025-08-21 11:55:17.222,-394109,-425625,-427509,-432120,2,2,2,2
2025-08-21 11:55:17.223,-394104,-425619,-427500,-432113,2,2,2,2
2025-08-21 11:55:17.223,-394033,-425606,-443836,-432102,2,2,2,2
2025-08-21 11:55:17.224,-394013,-409205,-427402,-440209,2,2,2,2
2025-08-21 11:55:17.224,-393999,-425575,-427390,-432068,2,2,2,2
2025-08-21 11:55:17.226,-393992,-425503,-443767,-431997,2,2,2,2
2025-08-21 11:55:17.227,-393989,-425498,-427389,-431934,2,2,2,2
2025-08-21 11:55:17.228,-393991,-425504,-443841,-432005,2,2,2,2
2025-08-21 11:55:17.229,-393999,-425578,-427465,-432015,2,2,2,2
2025-08-21 11:55:17.230,-394033,-425580,-443785,-432019,2,2,2,2
2025-08-21 11:55:17.231,-394007,-409200,-427413,-432029,2,2,2,2
2025-08-21 11:55:17.232,-394084,-425599,-427495,-432110,2,2,2,2
2025-08-21 11:55:17.233,-394102,-425618,-427513,-431875,2,2,2,2
2025-08-21 11:55:17.234,-394100,-425679,-427510,-448257,2,2,2,2
2025-08-21 11:55:17.234,-394098,-425679,-427511,-448261,2,2,2,2
2025-08-21 11:55:17.235,-394105,-425611,-427504,-431878,2,2,2,2
2025-08-21 11:55:17.236,-394045,-425620,-427506,-431887,2,2,2,2
2025-08-21 11:55:17.236,-394111,-425623,-427508,-431888,2,2,2,2
2025-08-21 11:55:17.237,-394180,-425628,-443897,-431888,2,2,2,2
2025-08-21 11:55:17.237,-394045,-425621,-443856,-431877,2,2,2,2
2025-08-21 11:55:17.238,-394104,-409232,-427501,-440065,2,2,2,2
2025-08-21 11:55:17.239,-394098,-425608,-427492,-432122,2,2,2,2
2025-08-21 11:55:17.239,-394094,-425602,-427490,-432117,2,2,2,2
2025-08-21 11:55:17.240,-394084,-425526,-427418,-448454,2,2,2,2
2025-08-21 11:55:17.241,-394017,-425579,-443794,-432097,2,2,2,2
2025-08-21 11:55:17.242,-394010,-425576,-443790,-432029,2,2,2,2
2025-08-21 11:55:17.243,-394046,-425580,-427411,-432099,2,2,2,2
2025-08-21 11:55:17.244,-394114,-425618,-427512,-431879,2,2,2,2
2025-08-21 11:55:17.245,-394215,-425721,-427549,-431982,2,2,2,2
2025-08-21 11:55:17.245,-394230,-425480,-427627,-448382,2,2,2,2
2025-08-21 11:55:17.246,-394233,-409100,-427631,-440195,2,2,2,2
2025-08-21 11:55:17.247,-394236,-409101,-427635,-440196,2,2,2,2
2025-08-21 11:55:17.247,-393992,-425496,-427648,-432081,2,2,2,2
2025-08-21 11:55:17.248,-394040,-425580,-427668,-432100,2,2,2,2
2025-08-21 11:55:17.248,-394011,-425518,-427669,-448484,2,2,2,2
2025-08-21 11:55:17.248,-394081,-425523,-427671,-448488,2,2,2,2
2025-08-21 11:55:17.249,-394006,-425572,-444040,-432027,2,2,2,2
2025-08-21 11:55:17.249,-393989,-409137,-427640,-440203,2,2,2,2
2025-08-21 11:55:17.250,-394238,-425483,-427636,-448389,2,2,2,2
2025-08-21 11:55:17.250,-394000,-425503,-427714,-432022,2,2,2,2
2025-08-21 11:55:17.250,-394240,-425493,-427639,-432073,2,2,2,2
2025-08-21 11:55:17.251,-394235,-425485,-427630,-432065,2,2,2,2
2025-08-21 11:55:17.251,-394236,-409103,-427628,-448383,2,2,2,2
2025-08-21 11:55:17.251,-394239,-425492,-427631,-448387,2,2,2,2
2025-08-21 11:55:17.252,-394004,-409160,-427644,-440212,2,2,2,2
2025-08-21 11:55:17.252,-394002,-425581,-427647,-432084,2,2,2,2
2025-08-21 11:55:17.252,-393999,-425580,-427583,-432020,2,2,2,2
2025-08-21 11:55:17.252,-394007,-425523,-427657,-448416,2,2,2,2
2025-08-21 11:55:17.252,-394021,-425600,-444089,-432110,2,2,2,2
2025-08-21 11:55:17.253,-394000,-425581,-427660,-432091,2,2,2,2
2025-08-21 11:55:17.253,-394240,-425573,-427714,-432016,2,2,2,2
2025-08-21 11:55:17.253,-394227,-425496,-427574,-432003,2,2,2,2
2025-08-21 11:55:17.253,-394213,-425478,-427620,-448371,2,2,2,2
2025-08-21 11:55:17.254,-394193,-425713,-443957,-431972,2,2,2,2
2025-08-21 11:55:17.254,-394114,-409248,-427525,-440083,2,2,2,2
2025-08-21 11:55:17.254,-394106,-425620,-427514,-431882,2,2,2,2
2025-08-21 11:55:17.254,-394063,-425610,-427503,-432122,2,2,2,2
2025-08-21 11:55:17.254,-394014,-425595,-427487,-432101,2,2,2,2
2025-08-21 11:55:17.255,-394019,-425599,-443873,-432106,2,2,2,2
2025-08-21 11:55:17.255,-394019,-425600,-443838,-432103,2,2,2,2
2025-08-21 11:55:17.255,-394015,-409209,-427418,-440290,2,2,2,2
2025-08-21 11:55:17.255,-394044,-425592,-427416,-432095,2,2,2,2
2025-08-21 11:55:17.255,-394013,-425592,-427479,-432029,2,2,2,2
2025-08-21 11:55:17.255,-394106,-425678,-427501,-432117,2,2,2,2
2025-08-21 11:55:17.256,-394036,-425606,-443880,-432113,2,2,2,2
2025-08-21 11:55:17.256,-394091,-425600,-427424,-432106,2,2,2,2
2025-08-21 11:55:17.256,-394107,-425617,-443889,-432122,2,2,2,2
2025-08-21 11:55:17.256,-394130,-425706,-427527,-431886,2,2,2,2
2025-08-21 11:55:17.256,-394138,-425710,-427531,-448275,2,2,2,2
2025-08-21 11:55:17.256,-394199,-425715,-443916,-431892,2,2,2,2
2025-08-21 11:55:17.257,-394141,-409341,-427540,-448285,2,2,2,2
2025-08-21 11:55:17.257,-394213,-425473,-427543,-448355,2,2,2,2
2025-08-21 11:55:17.257,-394215,-425728,-427540,-431972,2,2,2,2
2025-08-21 11:55:17.257,-394142,-425718,-427531,-448317,2,2,2,2
2025-08-21 11:55:17.257,-394194,-425706,-443906,-431893,2,2,2,2
2025-08-21 11:55:17.257,-394191,-425699,-427518,-431890,2,2,2,2
2025-08-21 11:55:17.258,-394118,-409306,-427510,-448267,2,2,2,2
2025-08-21 11:55:17.258,-394118,-425619,-443892,-431879,2,2,2,2
2025-08-21 11:55:17.258,-394115,-409234,-427505,-440070,2,2,2,2
2025-08-21 11:55:17.258,-394120,-425687,-427514,-448268,2,2,2,2
2025-08-21 11:55:17.258,-394186,-425628,-443901,-431884,2,2,2,2
2025-08-21 11:55:17.258,-394107,-409229,-427505,-448509,2,2,2,2
2025-08-21 11:55:17.259,-394021,-425594,-443802,-432105,2,2,2,2
2025-08-21 11:55:17.259,-394011,-425589,-443791,-432032,2,2,2,2
2025-08-21 11:55:17.259,-394088,-425599,-427420,-432109,2,2,2,2
2025-08-21 11:55:17.259,-394086,-425599,-427487,-432111,2,2,2,2
2025-08-21 11:55:17.259,-394016,-425593,-427483,-432103,2,2,2,2
2025-08-21 11:55:17.259,-394021,-425598,-443805,-432107,2,2,2,2
2025-08-21 11:55:17.260,-394111,-409273,-427506,-448260,2,2,2,2
2025-08-21 11:55:17.260,-394113,-425627,-427505,-431877,2,2,2,2
2025-08-21 11:55:17.260,-394112,-425625,-427498,-431876,2,2,2,2
2025-08-21 11:55:17.260,-394115,-425696,-427498,-448267,2,2,2,2
2025-08-21 11:55:17.260,-394200,-425717,-443904,-431901,2,2,2,2
2025-08-21 11:55:17.261,-394217,-409096,-427540,-431985,2,2,2,2
2025-08-21 11:55:17.261,-393989,-425570,-427631,-432076,2,2,2,2
2025-08-21 11:55:17.261,-394013,-425593,-427720,-432099,2,2,2,2
2025-08-21 11:55:17.261,-394018,-425594,-444042,-432100,2,2,2,2
2025-08-21 11:55:17.261,-394014,-425524,-427656,-448449,2,2,2,2
2025-08-21 11:55:17.261,-394036,-425613,-444097,-432120,2,2,2,2
2025-08-21 11:55:17.262,-394119,-409281,-427764,-440331,2,2,2,2
2025-08-21 11:55:17.262,-394136,-425711,-427526,-448541,2,2,2,2
2025-08-21 11:55:17.262,-394130,-425708,-427525,-432153,2,2,2,2
2025-08-21 11:55:17.262,-394126,-425704,-427776,-448565,2,2,2,2
2025-08-21 11:55:17.262,-394117,-425696,-427768,-448525,2,2,2,2
2025-08-21 11:55:17.262,-394040,-425618,-444139,-432125,2,2,2,2
2025-08-21 11:55:17.263,-394086,-409220,-427675,-448496,2,2,2,2
2025-08-21 11:55:17.263,-394045,-425595,-427671,-432109,2,2,2,2
2025-08-21 11:55:17.263,-394005,-425585,-444048,-432099,2,2,2,2
2025-08-21 11:55:17.263,-393989,-425506,-427647,-448469,2,2,2,2
2025-08-21 11:55:17.263,-394237,-425501,-444024,-432012,2,2,2,2
2025-08-21 11:55:17.263,-394235,-409145,-427635,-440201,2,2,2,2
2025-08-21 11:55:17.264,-394225,-409107,-427628,-448385,2,2,2,2
2025-08-21 11:55:17.264,-394220,-425486,-444007,-431996,2,2,2,2
2025-08-21 11:55:17.264,-394140,-425478,-427541,-431918,2,2,2,2
2025-08-21 11:55:17.264,-394186,-425714,-443904,-431899,2,2,2,2
2025-08-21 11:55:17.264,-394110,-409311,-427508,-448269,2,2,2,2
2025-08-21 11:55:17.264,-394100,-425622,-443887,-431878,2,2,2,2
2025-08-21 11:55:17.265,-394037,-425626,-443892,-431880,2,2,2,2
2025-08-21 11:55:17.265,-394031,-425617,-443880,-432124,2,2,2,2
2025-08-21 11:55:17.265,-394032,-425613,-427493,-432118,2,2,2,2
2025-08-21 11:55:17.265,-394099,-425676,-427492,-448498,2,2,2,2
2025-08-21 11:55:17.265,-394046,-425622,-443886,-432125,2,2,2,2
2025-08-21 11:55:17.266,-394202,-425710,-443915,-431893,2,2,2,2
2025-08-21 11:55:17.266,-394220,-425473,-427550,-431909,2,2,2,2
2025-08-21 11:55:17.266,-394232,-425484,-427622,-431923,2,2,2,2
2025-08-21 11:55:17.266,-394229,-425480,-427554,-431983,2,2,2,2
2025-08-21 11:55:17.266,-394211,-425720,-427538,-431903,2,2,2,2
2025-08-21 11:55:17.266,-394193,-425701,-443902,-431886,2,2,2,2
2025-08-21 11:55:17.267,-394191,-425632,-443897,-431879,2,2,2,2
2025-08-21 11:55:17.267,-394122,-425623,-427507,-432128,2,2,2,2
2025-08-21 11:55:17.267,-394102,-425603,-427489,-432108,2,2,2,2
2025-08-21 11:55:17.267,-394085,-425526,-427410,-448481,2,2,2,2
2025-08-21 11:55:17.267,-393992,-425499,-427381,-448388,2,2,2,2
2025-08-21 11:55:17.267,-393977,-425484,-443717,-431989,2,2,2,2
2025-08-21 11:55:17.268,-393971,-409098,-427363,-440174,2,2,2,2
2025-08-21 11:55:17.268,-393959,-425470,-427287,-431903,2,2,2,2
2025-08-21 11:55:17.268,-393957,-425466,-427282,-431899,2,2,2,2
2025-08-21 11:55:17.268,-393966,-425474,-427288,-448325,2,2,2,2
2025-08-21 11:55:17.268,-393956,-425461,-443660,-431894,2,2,2,2
2025-08-21 11:55:17.268,-393945,-425448,-443651,-431886,2,2,2,2
2025-08-21 11:55:17.268,-393888,-409036,-427274,-448275,2,2,2,2
2025-08-21 11:55:17.269,-393970,-425471,-427363,-431908,2,2,2,2
2025-08-21 11:55:17.269,-393974,-425480,-427374,-448300,2,2,2,2
2025-08-21 11:55:17.269,-393974,-425482,-427372,-448302,2,2,2,2
2025-08-21 11:55:17.269,-393973,-425480,-443723,-431983,2,2,2,2
2025-08-21 11:55:17.269,-393984,-409138,-427382,-440192,2,2,2,2
2025-08-21 11:55:17.269,-393999,-425504,-443783,-432015,2,2,2,2
2025-08-21 11:55:17.270,-394081,-425521,-427414,-448447,2,2,2,2
2025-08-21 11:55:17.270,-394213,-425721,-427545,-431911,2,2,2,2
2025-08-21 11:55:17.270,-394220,-425473,-427554,-431984,2,2,2,2
2025-08-21 11:55:17.270,-394213,-409339,-427544,-448362,2,2,2,2
2025-08-21 11:55:17.270,-394176,-425723,-443924,-431912,2,2,2,2
2025-08-21 11:55:17.271,-394139,-425720,-427546,-431912,2,2,2,2
2025-08-21 11:55:17.271,-394140,-425719,-427540,-431911,2,2,2,2
2025-08-21 11:55:17.271,-394214,-425727,-427552,-431984,2,2,2,2
2025-08-21 11:55:17.271,-394178,-425724,-427552,-431920,2,2,2,2
2025-08-21 11:55:17.271,-394206,-425722,-443965,-431980,2,2,2,2
2025-08-21 11:55:17.272,-394225,-425486,-427626,-431936,2,2,2,2
2025-08-21 11:55:17.272,-394231,-425493,-427565,-432006,2,2,2,2
2025-08-21 11:55:17.272,-393986,-425571,-444023,-432022,2,2,2,2
2025-08-21 11:55:17.272,-393987,-425505,-427640,-448441,2,2,2,2
2025-08-21 11:55:17.272,-393991,-425576,-444031,-432029,2,2,2,2
2025-08-21 11:55:17.272,-393999,-425519,-427657,-432101,2,2,2,2
2025-08-21 11:55:17.272,-394008,-409145,-427666,-448492,2,2,2,2
2025-08-21 11:55:17.273,-394081,-425598,-427740,-432121,2,2,2,2
2025-08-21 11:55:17.273,-394101,-425678,-427761,-448525,2,2,2,2
2025-08-21 11:55:17.273,-394191,-425704,-443911,-432225,2,2,2,2
2025-08-21 11:55:17.273,-394217,-409346,-427549,-440436,2,2,2,2
2025-08-21 11:55:17.273,-394225,-409354,-427622,-440443,2,2,2,2
2025-08-21 11:55:17.273,-394231,-425742,-427567,-432253,2,2,2,2
2025-08-21 11:55:17.274,-394220,-425734,-427619,-448628,2,2,2,2
2025-08-21 11:55:17.274,-394222,-425734,-427622,-448567,2,2,2,2
2025-08-21 11:55:17.274,-394216,-425731,-443969,-432242,2,2,2,2
2025-08-21 11:55:17.274,-394142,-409338,-427541,-440427,2,2,2,2
2025-08-21 11:55:17.274,-394139,-425721,-427536,-432167,2,2,2,2
2025-08-21 11:55:17.274,-394128,-425708,-427522,-448537,2,2,2,2
2025-08-21 11:55:17.275,-394114,-425627,-427762,-432137,2,2,2,2
2025-08-21 11:55:17.275,-394095,-425535,-427672,-448495,2,2,2,2
2025-08-21 11:55:17.275,-394005,-425569,-444029,-432014,2,2,2,2
2025-08-21 11:55:17.275,-394240,-425485,-427629,-431931,2,2,2,2
2025-08-21 11:55:17.275,-394230,-425477,-427621,-431923,2,2,2,2
2025-08-21 11:55:17.275,-394221,-425723,-427546,-431981,2,2,2,2
2025-08-21 11:55:17.276,-394122,-409244,-427512,-440075,2,2,2,2
2025-08-21 11:55:17.276,-394181,-425619,-443886,-432128,2,2,2,2
2025-08-21 11:55:17.276,-394123,-409305,-427510,-448261,2,2,2,2
2025-08-21 11:55:17.276,-394161,-425629,-443898,-431882,2,2,2,2
2025-08-21 11:55:17.276,-394047,-425613,-443883,-432120,2,2,2,2
2025-08-21 11:55:17.277,-394108,-425674,-427498,-448496,2,2,2,2
2025-08-21 11:55:17.277,-394188,-425629,-443900,-432127,2,2,2,2
2025-08-21 11:55:17.277,-394142,-425713,-427533,-431889,2,2,2,2
2025-08-21 11:55:17.277,-394217,-425478,-427546,-448356,2,2,2,2
2025-08-21 11:55:17.277,-394222,-425486,-443933,-431974,2,2,2,2
2025-08-21 11:55:17.277,-394127,-409291,-427521,-440071,2,2,2,2
2025-08-21 11:55:17.278,-394121,-425700,-427515,-431876,2,2,2,2
2025-08-21 11:55:17.278,-394127,-425708,-427525,-431884,2,2,2,2
2025-08-21 11:55:17.278,-394183,-425701,-443907,-431879,2,2,2,2
2025-08-21 11:55:17.278,-394183,-425700,-443906,-431877,2,2,2,2
2025-08-21 11:55:17.278,-394123,-425705,-427527,-431883,2,2,2,2
2025-08-21 11:55:17.278,-394126,-425706,-427530,-431886,2,2,2,2
2025-08-21 11:55:17.279,-394137,-425718,-427541,-431896,2,2,2,2
2025-08-21 11:55:17.279,-394135,-425713,-427535,-431892,2,2,2,2
2025-08-21 11:55:17.279,-394183,-425702,-443905,-431878,2,2,2,2
2025-08-21 11:55:17.279,-394121,-425630,-427509,-432126,2,2,2,2
2025-08-21 11:55:17.279,-394118,-425629,-427508,-432124,2,2,2,2
2025-08-21 11:55:17.280,-394013,-425521,-427403,-448436,2,2,2,2
2025-08-21 11:55:17.280,-394010,-425587,-443791,-432023,2,2,2,2
2025-08-21 11:55:17.280,-394014,-425588,-443856,-432023,2,2,2,2
2025-08-21 11:55:17.280,-394040,-425581,-443786,-432082,2,2,2,2
2025-08-21 11:55:17.280,-393987,-425496,-427380,-431933,2,2,2,2
2025-08-21 11:55:17.280,-393972,-425482,-427302,-431984,2,2,2,2
2025-08-21 11:55:17.280,-393966,-425479,-427363,-448299,2,2,2,2
2025-08-21 11:55:17.281,-393963,-425474,-427292,-431972,2,2,2,2
2025-08-21 11:55:17.281,-393953,-409081,-427285,-440091,2,2,2,2
2025-08-21 11:55:17.281,-393883,-409074,-427280,-448280,2,2,2,2
2025-08-21 11:55:17.281,-393942,-425453,-443658,-431891,2,2,2,2
2025-08-21 11:55:17.281,-393933,-425447,-443649,-431886,2,2,2,2
2025-08-21 11:55:17.282,-393875,-425450,-427269,-431890,2,2,2,2
2025-08-21 11:55:17.282,-393948,-425458,-443665,-431901,2,2,2,2
2025-08-21 11:55:17.282,-393954,-409078,-427288,-448357,2,2,2,2
2025-08-21 11:55:17.282,-393954,-409075,-427288,-431900,2,2,2,2
2025-08-21 11:55:17.282,-393963,-425466,-427293,-431906,2,2,2,2
2025-08-21 11:55:17.282,-393935,-425469,-443677,-431905,2,2,2,2
2025-08-21 11:55:17.283,-393961,-425467,-427290,-431899,2,2,2,2
2025-08-21 11:55:17.283,-393955,-425461,-427285,-448314,2,2,2,2
2025-08-21 11:55:17.283,-393945,-425456,-443659,-431895,2,2,2,2
2025-08-21 11:55:17.283,-393881,-409073,-427270,-448279,2,2,2,2
2025-08-21 11:55:17.283,-393957,-425473,-427281,-431906,2,2,2,2
2025-08-21 11:55:17.283,-393964,-425484,-427295,-431982,2,2,2,2
2025-08-21 11:55:17.284,-393973,-425492,-427370,-448374,2,2,2,2
2025-08-21 11:55:17.284,-394000,-425579,-443781,-432018,2,2,2,2
2025-08-21 11:55:17.284,-394009,-409201,-427395,-448408,2,2,2,2
2025-08-21 11:55:17.284,-394043,-425591,-427396,-432094,2,2,2,2
2025-08-21 11:55:17.284,-394012,-425533,-427397,-448449,2,2,2,2
2025-08-21 11:55:17.284,-394011,-425533,-427397,-448448,2,2,2,2
2025-08-21 11:55:17.285,-394018,-425600,-443788,-432102,2,2,2,2
2025-08-21 11:55:17.285,-394013,-409208,-427400,-440224,2,2,2,2
2025-08-21 11:55:17.285,-394013,-409144,-427401,-448412,2,2,2,2
2025-08-21 11:55:17.285,-393993,-425578,-443772,-432011,2,2,2,2
2025-08-21 11:55:17.285,-393888,-425470,-427282,-431907,2,2,2,2
2025-08-21 11:55:17.286,-393953,-425470,-443665,-431974,2,2,2,2
2025-08-21 11:55:17.286,-393957,-409092,-427281,-448360,2,2,2,2
2025-08-21 11:55:17.286,-393920,-425473,-443657,-431909,2,2,2,2
2025-08-21 11:55:17.286,-393888,-425475,-427275,-431972,2,2,2,2
2025-08-21 11:55:17.286,-393954,-425477,-427279,-448289,2,2,2,2
2025-08-21 11:55:17.286,-393959,-425481,-427284,-431909,2,2,2,2
2025-08-21 11:55:17.287,-393968,-425490,-427291,-431981,2,2,2,2
2025-08-21 11:55:17.287,-393969,-425492,-427290,-448363,2,2,2,2
2025-08-21 11:55:17.287,-393956,-425483,-427282,-448321,2,2,2,2
2025-08-21 11:55:17.287,-393967,-425488,-427291,-431916,2,2,2,2
2025-08-21 11:55:17.287,-393994,-425574,-427315,-432011,2,2,2,2
2025-08-21 11:55:17.287,-394094,-425669,-427413,-448459,2,2,2,2
2025-08-21 11:55:17.288,-394126,-425697,-427507,-448265,2,2,2,2
2025-08-21 11:55:17.288,-394198,-425707,-443900,-431892,2,2,2,2
2025-08-21 11:55:17.288,-394138,-409328,-427523,-440087,2,2,2,2
2025-08-21 11:55:17.288,-394126,-425701,-427510,-431886,2,2,2,2
2025-08-21 11:55:17.288,-394107,-425623,-427490,-432126,2,2,2,2
2025-08-21 11:55:17.288,-394095,-425674,-427412,-448498,2,2,2,2
2025-08-21 11:55:17.289,-394024,-425601,-443787,-432107,2,2,2,2
2025-08-21 11:55:17.289,-394094,-409220,-427408,-440301,2,2,2,2
2025-08-21 11:55:17.289,-394093,-409219,-427412,-440299,2,2,2,2
2025-08-21 11:55:17.289,-394087,-425604,-427411,-432100,2,2,2,2
2025-08-21 11:55:17.289,-394013,-425595,-427466,-432026,2,2,2,2
2025-08-21 11:55:17.289,-394003,-425519,-427389,-448459,2,2,2,2
2025-08-21 11:55:17.290,-393985,-425569,-443725,-431998,2,2,2,2
2025-08-21 11:55:17.290,-393976,-409113,-427366,-440185,2,2,2,2
2025-08-21 11:55:17.290,-393971,-425490,-427362,-431924,2,2,2,2
2025-08-21 11:55:17.290,-393968,-425484,-427292,-431987,2,2,2,2
2025-08-21 11:55:17.290,-393957,-425478,-427285,-431979,2,2,2,2
2025-08-21 11:55:17.290,-393959,-425478,-427289,-448330,2,2,2,2
2025-08-21 11:55:17.291,-393958,-425476,-443700,-431975,2,2,2,2
2025-08-21 11:55:17.291,-393933,-425487,-427292,-431919,2,2,2,2
2025-08-21 11:55:17.291,-393928,-425484,-427290,-431919,2,2,2,2
2025-08-21 11:55:17.291,-393962,-425484,-427292,-431985,2,2,2,2
2025-08-21 11:55:17.291,-393971,-409138,-427296,-440181,2,2,2,2
2025-08-21 11:55:17.291,-393975,-425490,-443682,-431989,2,2,2,2
2025-08-21 11:55:17.292,-393982,-409138,-427364,-448375,2,2,2,2
2025-08-21 11:55:17.292,-393990,-425501,-427376,-448385,2,2,2,2
2025-08-21 11:55:17.292,-394087,-425665,-427407,-448477,2,2,2,2
2025-08-21 11:55:17.292,-394012,-425591,-443781,-432018,2,2,2,2
2025-08-21 11:55:17.292,-394006,-425587,-427457,-432018,2,2,2,2
2025-08-21 11:55:17.293,-394008,-425526,-427397,-448438,2,2,2,2
2025-08-21 11:55:17.293,-393997,-425580,-443772,-432010,2,2,2,2
2025-08-21 11:55:17.293,-393993,-409195,-427391,-440201,2,2,2,2
2025-08-21 11:55:17.293,-393989,-425577,-427323,-432006,2,2,2,2
2025-08-21 11:55:17.293,-393975,-425498,-427311,-431993,2,2,2,2
2025-08-21 11:55:17.293,-393969,-425494,-443752,-431988,2,2,2,2
2025-08-21 11:55:17.294,-393974,-425500,-443755,-431991,2,2,2,2
2025-08-21 11:55:17.294,-393981,-425575,-427376,-431934,2,2,2,2
2025-08-21 11:55:17.294,-393992,-425586,-427389,-432071,2,2,2,2
2025-08-21 11:55:17.294,-393996,-425595,-427328,-432016,2,2,2,2
2025-08-21 11:55:17.294,-393979,-425582,-427318,-432002,2,2,2,2
2025-08-21 11:55:17.295,-393980,-425581,-443767,-432002,2,2,2,2
2025-08-21 11:55:17.295,-393983,-409162,-427387,-440195,2,2,2,2
2025-08-21 11:55:17.295,-393986,-425578,-427387,-432068,2,2,2,2
2025-08-21 11:55:17.295,-394000,-425591,-443780,-432015,2,2,2,2
2025-08-21 11:55:17.295,-393996,-425523,-427394,-448397,2,2,2,2
2025-08-21 11:55:17.295,-393991,-425580,-443773,-432007,2,2,2,2
2025-08-21 11:55:17.296,-393995,-425585,-443843,-432009,2,2,2,2
2025-08-21 11:55:17.296,-393991,-409161,-427390,-448389,2,2,2,2
2025-08-21 11:55:17.296,-393985,-425504,-427381,-431933,2,2,2,2
2025-08-21 11:55:17.296,-393987,-425504,-427313,-431998,2,2,2,2
2025-08-21 11:55:17.297,-393995,-425509,-427382,-448452,2,2,2,2
2025-08-21 11:55:17.297,-394012,-425588,-443784,-432021,2,2,2,2
2025-08-21 11:55:17.297,-394085,-409212,-427406,-440219,2,2,2,2
2025-08-21 11:55:17.297,-394052,-425596,-427406,-432094,2,2,2,2
2025-08-21 11:55:17.298,-394005,-425582,-443777,-432013,2,2,2,2
2025-08-21 11:55:17.298,-394099,-425679,-427422,-432112,2,2,2,2
2025-08-21 11:55:17.298,-394042,-425622,-443875,-432118,2,2,2,2
2025-08-21 11:55:17.299,-394102,-425614,-427485,-432118,2,2,2,2
2025-08-21 11:55:17.299,-394025,-425601,-443793,-432106,2,2,2,2
2025-08-21 11:55:17.300,-393995,-425572,-427383,-432069,2,2,2,2
2025-08-21 11:55:17.300,-393984,-425500,-427313,-432001,2,2,2,2
2025-08-21 11:55:17.300,-393980,-425499,-427371,-448384,2,2,2,2
2025-08-21 11:55:17.300,-393965,-425485,-427291,-448371,2,2,2,2
2025-08-21 11:55:17.301,-393951,-425474,-443663,-431973,2,2,2,2
2025-08-21 11:55:17.301,-393954,-425476,-427281,-431910,2,2,2,2
2025-08-21 11:55:17.301,-393882,-425472,-427278,-431904,2,2,2,2
2025-08-21 11:55:17.301,-393956,-425482,-427287,-431972,2,2,2,2
2025-08-21 11:55:17.302,-393974,-425501,-427370,-448375,2,2,2,2
2025-08-21 11:55:17.302,-393992,-409197,-427388,-440206,2,2,2,2
2025-08-21 11:55:17.302,-393997,-409199,-427393,-440209,2,2,2,2
2025-08-21 11:55:17.302,-394000,-409201,-427396,-440216,2,2,2,2
2025-08-21 11:55:17.303,-393986,-425570,-427382,-432076,2,2,2,2
2025-08-21 11:55:17.303,-393982,-425500,-443761,-432009,2,2,2,2
2025-08-21 11:55:17.303,-393977,-425494,-427368,-448387,2,2,2,2
2025-08-21 11:55:17.303,-393982,-425495,-427372,-432067,2,2,2,2
2025-08-21 11:55:17.304,-393994,-409160,-427384,-440204,2,2,2,2
2025-08-21 11:55:17.304,-394009,-425594,-427461,-432027,2,2,2,2
2025-08-21 11:55:17.304,-394098,-425620,-443805,-432115,2,2,2,2
2025-08-21 11:55:17.305,-394101,-425688,-427489,-448504,2,2,2,2
2025-08-21 11:55:17.305,-394023,-425606,-427473,-432107,2,2,2,2
2025-08-21 11:55:17.305,-394013,-425592,-427463,-432100,2,2,2,2
2025-08-21 11:55:17.306,-394041,-425582,-427397,-432093,2,2,2,2
2025-08-21 11:55:17.306,-394010,-425581,-427463,-432031,2,2,2,2
2025-08-21 11:55:17.306,-394015,-409200,-427403,-440224,2,2,2,2
2025-08-21 11:55:17.306,-394084,-425590,-427406,-432096,2,2,2,2
2025-08-21 11:55:17.306,-394011,-425584,-427461,-432022,2,2,2,2
2025-08-21 11:55:17.307,-394012,-409137,-427395,-448402,2,2,2,2
2025-08-21 11:55:17.307,-394012,-425585,-443781,-432016,2,2,2,2
2025-08-21 11:55:17.307,-394081,-409207,-427403,-440215,2,2,2,2
2025-08-21 11:55:17.308,-394022,-425598,-443859,-432032,2,2,2,2
2025-08-21 11:55:17.308,-394014,-425526,-427405,-448404,2,2,2,2
2025-08-21 11:55:17.308,-394004,-425515,-427394,-448393,2,2,2,2
2025-08-21 11:55:17.308,-394006,-425584,-443776,-432014,2,2,2,2
2025-08-21 11:55:17.309,-393970,-409099,-427293,-440168,2,2,2,2
2025-08-21 11:55:17.309,-393925,-425471,-427281,-431900,2,2,2,2
2025-08-21 11:55:17.309,-393864,-425447,-427513,-431873,2,2,2,2
2025-08-21 11:55:17.310,-393782,-425364,-443878,-431859,2,2,2,2
2025-08-21 11:55:17.310,-393782,-425363,-443849,-431862,2,2,2,2
2025-08-21 11:55:17.310,-393866,-409025,-427513,-440069,2,2,2,2
2025-08-21 11:55:17.310,-393874,-425446,-427517,-431880,2,2,2,2
2025-08-21 11:55:17.311,-393876,-425450,-427520,-431882,2,2,2,2
2025-08-21 11:55:17.311,-393883,-425456,-427268,-448271,2,2,2,2
2025-08-21 11:55:17.311,-393883,-425456,-427269,-448272,2,2,2,2
2025-08-21 11:55:17.311,-393888,-409082,-427277,-440093,2,2,2,2
2025-08-21 11:55:17.312,-393961,-425469,-427283,-431905,2,2,2,2
2025-08-21 11:55:17.312,-393971,-425476,-427290,-431913,2,2,2,2
2025-08-21 11:55:17.312,-393984,-425492,-427306,-431992,2,2,2,2
2025-08-21 11:55:17.312,-393976,-425486,-427296,-448332,2,2,2,2
2025-08-21 11:55:17.313,-393965,-425476,-443704,-431904,2,2,2,2
2025-08-21 11:55:17.313,-393960,-425470,-443665,-431899,2,2,2,2
2025-08-21 11:55:17.313,-393962,-409087,-427286,-448286,2,2,2,2
2025-08-21 11:55:17.313,-393974,-425486,-443748,-431978,2,2,2,2
2025-08-21 11:55:17.314,-393979,-425489,-427366,-448329,2,2,2,2
2025-08-21 11:55:17.314,-393959,-425468,-427280,-431892,2,2,2,2
2025-08-21 11:55:17.314,-393940,-425451,-443651,-431877,2,2,2,2
2025-08-21 11:55:17.314,-393863,-409021,-427510,-448252,2,2,2,2
2025-08-21 11:55:17.315,-393863,-425374,-427511,-431872,2,2,2,2
2025-08-21 11:55:17.315,-393875,-425452,-427268,-431885,2,2,2,2
2025-08-21 11:55:17.316,-393949,-425465,-427281,-431899,2,2,2,2
2025-08-21 11:55:17.316,-393965,-425481,-427361,-448328,2,2,2,2
2025-08-21 11:55:17.316,-393985,-425504,-443764,-431993,2,2,2,2
2025-08-21 11:55:17.317,-394000,-409203,-427386,-440193,2,2,2,2
2025-08-21 11:55:17.317,-393990,-425581,-427317,-431993,2,2,2,2
2025-08-21 11:55:17.317,-393984,-425504,-427305,-431986,2,2,2,2
2025-08-21 11:55:17.317,-393996,-425515,-427381,-448383,2,2,2,2
2025-08-21 11:55:17.318,-394006,-425527,-427390,-448395,2,2,2,2
2025-08-21 11:55:17.318,-394014,-425602,-427402,-432086,2,2,2,2
2025-08-21 11:55:17.318,-394087,-425609,-427411,-432095,2,2,2,2
2025-08-21 11:55:17.318,-394082,-425602,-427469,-432027,2,2,2,2
2025-08-21 11:55:17.319,-394013,-425596,-427462,-432017,2,2,2,2
2025-08-21 11:55:17.319,-394026,-425611,-443790,-432026,2,2,2,2
2025-08-21 11:55:17.319,-394095,-409231,-427412,-440220,2,2,2,2
2025-08-21 11:55:17.320,-394104,-409276,-427424,-448486,2,2,2,2
2025-08-21 11:55:17.320,-394105,-425697,-427493,-432105,2,2,2,2
2025-08-21 11:55:17.320,-394024,-425612,-443791,-432026,2,2,2,2
2025-08-21 11:55:17.321,-394035,-425626,-443836,-432104,2,2,2,2
2025-08-21 11:55:17.321,-394118,-409325,-427502,-448506,2,2,2,2
2025-08-21 11:55:17.321,-394172,-425473,-427525,-431884,2,2,2,2
2025-08-21 11:55:17.321,-394213,-425482,-427534,-431893,2,2,2,2
2025-08-21 11:55:17.322,-394211,-425479,-443911,-431892,2,2,2,2
2025-08-21 11:55:17.322,-394220,-425489,-427537,-431902,2,2,2,2
2025-08-21 11:55:17.322,-393988,-409127,-427623,-448377,2,2,2,2
2025-08-21 11:55:17.323,-393989,-425581,-444010,-431998,2,2,2,2
2025-08-21 11:55:17.323,-394230,-425507,-427546,-431914,2,2,2,2
2025-08-21 11:55:17.323,-394236,-425574,-443935,-431984,2,2,2,2
2025-08-21 11:55:17.324,-394227,-425502,-427542,-431975,2,2,2,2
2025-08-21 11:55:17.324,-394212,-425489,-427529,-431898,2,2,2,2
2025-08-21 11:55:17.324,-394213,-425489,-443919,-431903,2,2,2,2
2025-08-21 11:55:17.325,-394140,-425473,-427522,-431892,2,2,2,2
2025-08-21 11:55:17.325,-394133,-425720,-427512,-431882,2,2,2,2
2025-08-21 11:55:17.325,-394131,-409332,-427509,-448259,2,2,2,2
2025-08-21 11:55:17.325,-394131,-425719,-427514,-448259,2,2,2,2
2025-08-21 11:55:17.326,-394201,-425726,-443907,-431883,2,2,2,2
2025-08-21 11:55:17.326,-394144,-409091,-427529,-440080,2,2,2,2
2025-08-21 11:55:17.326,-394138,-425476,-427530,-431885,2,2,2,2
2025-08-21 11:55:17.326,-394133,-425726,-427524,-431881,2,2,2,2
2025-08-21 11:55:17.327,-394139,-425473,-427531,-448268,2,2,2,2
2025-08-21 11:55:17.327,-394213,-425483,-443927,-431895,2,2,2,2
2025-08-21 11:55:17.327,-394228,-409115,-427625,-440169,2,2,2,2
2025-08-21 11:55:17.327,-394229,-409148,-427624,-440170,2,2,2,2
2025-08-21 11:55:17.328,-394191,-425491,-427547,-431906,2,2,2,2
2025-08-21 11:55:17.328,-394227,-425492,-427547,-448357,2,2,2,2
2025-08-21 11:55:17.328,-394229,-425497,-443936,-431977,2,2,2,2
2025-08-21 11:55:17.328,-394233,-425500,-443968,-431981,2,2,2,2
2025-08-21 11:55:17.329,-394227,-409143,-427547,-440165,2,2,2,2
2025-08-21 11:55:17.329,-394225,-425491,-443927,-431903,2,2,2,2
2025-08-21 11:55:17.329,-394191,-425484,-443923,-431901,2,2,2,2
2025-08-21 11:55:17.330,-394209,-425728,-427525,-448266,2,2,2,2
2025-08-21 11:55:17.330,-394137,-409338,-427518,-448259,2,2,2,2
2025-08-21 11:55:17.330,-394210,-425476,-427525,-431883,2,2,2,2
2025-08-21 11:55:17.330,-394216,-425483,-427529,-448276,2,2,2,2
2025-08-21 11:55:17.331,-394225,-425488,-427532,-431901,2,2,2,2
