Timestamp,Ch1,Ch2,Ch3,Ch4,Ch5,Ch6,Ch7,Ch8
2025-08-21 12:04:14.241,-394357,-409573,-427650,-448928,2,2,2,2
2025-08-21 12:04:14.241,-394318,-425885,-444028,-432540,2,2,2,2
2025-08-21 12:04:14.241,-394342,-425942,-427636,-448947,2,2,2,2
2025-08-21 12:04:14.241,-394338,-425942,-427634,-448979,2,2,2,2
2025-08-21 12:04:14.241,-394267,-425872,-443941,-432521,2,2,2,2
2025-08-21 12:04:14.242,-394254,-409471,-427540,-448888,2,2,2,2
2025-08-21 12:04:14.242,-394448,-425825,-427769,-432406,2,2,2,2
2025-08-21 12:04:14.242,-394471,-425750,-444145,-432397,2,2,2,2
2025-08-21 12:04:14.242,-394486,-425837,-427524,-432413,2,2,2,2
2025-08-21 12:04:14.242,-394491,-425839,-427526,-432412,2,2,2,2
2025-08-21 12:04:14.242,-394493,-409392,-427527,-448796,2,2,2,2
2025-08-21 12:04:14.242,-394256,-425923,-427542,-448846,2,2,2,2
2025-08-21 12:04:14.243,-394264,-425870,-427618,-432439,2,2,2,2
2025-08-21 12:04:14.243,-394269,-425874,-427622,-432444,2,2,2,2
2025-08-21 12:04:14.243,-394262,-425868,-427551,-432500,2,2,2,2
2025-08-21 12:04:14.243,-394256,-425929,-427549,-448845,2,2,2,2
2025-08-21 12:04:14.243,-394252,-425863,-443963,-432493,2,2,2,2
2025-08-21 12:04:14.244,-394269,-425877,-427628,-432444,2,2,2,2
2025-08-21 12:04:14.244,-394265,-425872,-427563,-432505,2,2,2,2
2025-08-21 12:04:14.244,-394272,-425945,-427638,-448902,2,2,2,2
2025-08-21 12:04:14.245,-394349,-425959,-427651,-448945,2,2,2,2
2025-08-21 12:04:14.245,-394288,-425961,-444034,-432532,2,2,2,2
2025-08-21 12:04:14.245,-394361,-409552,-427655,-440730,2,2,2,2
2025-08-21 12:04:14.245,-394371,-425976,-444048,-432611,2,2,2,2
2025-08-21 12:04:14.246,-394386,-425993,-427744,-432628,2,2,2,2
2025-08-21 12:04:14.246,-394391,-426001,-427751,-449019,2,2,2,2
2025-08-21 12:04:14.246,-394467,-426015,-444147,-432391,2,2,2,2
2025-08-21 12:04:14.246,-394479,-426091,-427776,-432406,2,2,2,2
2025-08-21 12:04:14.247,-394489,-442483,-427790,-448799,2,2,2,2
2025-08-21 12:04:14.247,-394494,-426103,-427794,-432420,2,2,2,2
2025-08-21 12:04:14.247,-394496,-426103,-427791,-432485,2,2,2,2
2025-08-21 12:04:14.247,-394489,-442479,-427782,-432414,2,2,2,2
2025-08-21 12:04:14.248,-394479,-426087,-444158,-432408,2,2,2,2
2025-08-21 12:04:14.248,-394474,-442432,-427766,-440590,2,2,2,2
2025-08-21 12:04:14.248,-394448,-426083,-427767,-432401,2,2,2,2
2025-08-21 12:04:14.249,-394500,-426103,-444169,-432414,2,2,2,2
2025-08-21 12:04:14.249,-394513,-426046,-427796,-448807,2,2,2,2
2025-08-21 12:04:14.249,-394533,-426130,-444198,-432508,2,2,2,2
2025-08-21 12:04:14.249,-394594,-442577,-427879,-448891,2,2,2,2
2025-08-21 12:04:14.250,-394553,-426125,-427808,-432434,2,2,2,2
2025-08-21 12:04:14.250,-394527,-426133,-427818,-432505,2,2,2,2
2025-08-21 12:04:14.250,-394521,-426128,-444198,-432505,2,2,2,2
2025-08-21 12:04:14.251,-394526,-426134,-427817,-432509,2,2,2,2
2025-08-21 12:04:14.251,-394593,-442586,-427889,-448900,2,2,2,2
2025-08-21 12:04:14.251,-394602,-426209,-427897,-448908,2,2,2,2
2025-08-21 12:04:14.252,-394605,-442596,-427898,-440716,2,2,2,2
2025-08-21 12:04:14.252,-394537,-426144,-444218,-432519,2,2,2,2
2025-08-21 12:04:14.252,-394611,-426217,-427970,-432530,2,2,2,2
2025-08-21 12:04:14.252,-394633,-426239,-427990,-432614,2,2,2,2
2025-08-21 12:04:14.253,-394713,-426000,-444387,-432631,2,2,2,2
2025-08-21 12:04:14.253,-394725,-442388,-428012,-432642,2,2,2,2
2025-08-21 12:04:14.253,-394735,-426012,-428019,-432652,2,2,2,2
2025-08-21 12:04:14.253,-394738,-426081,-428024,-432655,2,2,2,2
2025-08-21 12:04:14.254,-394742,-426021,-428030,-449047,2,2,2,2
2025-08-21 12:04:14.254,-394734,-426013,-444413,-432657,2,2,2,2
2025-08-21 12:04:14.254,-394714,-425998,-444364,-432641,2,2,2,2
2025-08-21 12:04:14.254,-394634,-442369,-427933,-440819,2,2,2,2
2025-08-21 12:04:14.255,-394612,-426225,-427913,-432608,2,2,2,2
2025-08-21 12:04:14.255,-394598,-426209,-427835,-432530,2,2,2,2
2025-08-21 12:04:14.255,-394528,-426138,-427829,-432527,2,2,2,2
2025-08-21 12:04:14.255,-394519,-426132,-444237,-432518,2,2,2,2
2025-08-21 12:04:14.256,-394505,-442503,-427806,-440692,2,2,2,2
2025-08-21 12:04:14.256,-394501,-426117,-427799,-432430,2,2,2,2
2025-08-21 12:04:14.256,-394501,-426116,-427798,-432428,2,2,2,2
2025-08-21 12:04:14.256,-394495,-426046,-427789,-448840,2,2,2,2
2025-08-21 12:04:14.257,-394476,-426030,-427777,-448823,2,2,2,2
2025-08-21 12:04:14.257,-394455,-426009,-444112,-432386,2,2,2,2
2025-08-21 12:04:14.257,-394444,-425993,-427743,-432630,2,2,2,2
2025-08-21 12:04:14.257,-394443,-425991,-444061,-432626,2,2,2,2
2025-08-21 12:04:14.258,-394423,-426003,-444138,-432638,2,2,2,2
2025-08-21 12:04:14.258,-394490,-426038,-427794,-448804,2,2,2,2
2025-08-21 12:04:14.258,-394499,-442496,-427804,-448880,2,2,2,2
2025-08-21 12:04:14.259,-394525,-442552,-427894,-448906,2,2,2,2
2025-08-21 12:04:14.259,-394597,-426208,-427904,-448915,2,2,2,2
2025-08-21 12:04:14.259,-394541,-426217,-444294,-432542,2,2,2,2
2025-08-21 12:04:14.259,-394613,-426228,-427920,-432618,2,2,2,2
2025-08-21 12:04:14.260,-394620,-426233,-427923,-432622,2,2,2,2
2025-08-21 12:04:14.260,-394550,-426226,-427980,-432614,2,2,2,2
2025-08-21 12:04:14.260,-394623,-442614,-427924,-449003,2,2,2,2
2025-08-21 12:04:14.261,-394548,-426221,-444297,-432543,2,2,2,2
2025-08-21 12:04:14.261,-394598,-442528,-427901,-440723,2,2,2,2
2025-08-21 12:04:14.261,-394525,-426138,-427894,-432586,2,2,2,2
2025-08-21 12:04:14.261,-394512,-426131,-444268,-432512,2,2,2,2
2025-08-21 12:04:14.262,-394499,-426178,-427806,-448881,2,2,2,2
2025-08-21 12:04:14.262,-394482,-426097,-444172,-432414,2,2,2,2
2025-08-21 12:04:14.262,-394392,-442391,-427763,-432388,2,2,2,2
2025-08-21 12:04:14.263,-394374,-425987,-427743,-432624,2,2,2,2
2025-08-21 12:04:14.263,-394318,-425962,-427653,-432597,2,2,2,2
2025-08-21 12:04:14.264,-394267,-425879,-427569,-432514,2,2,2,2
2025-08-21 12:04:14.264,-394261,-425935,-427625,-448894,2,2,2,2
2025-08-21 12:04:14.264,-394264,-425874,-443982,-432512,2,2,2,2
2025-08-21 12:04:14.264,-394338,-409531,-427641,-440713,2,2,2,2
2025-08-21 12:04:14.264,-394344,-425955,-427645,-432591,2,2,2,2
2025-08-21 12:04:14.265,-394266,-425875,-427563,-432509,2,2,2,2
2025-08-21 12:04:14.265,-394481,-425777,-427527,-448790,2,2,2,2
2025-08-21 12:04:14.265,-394479,-425840,-443910,-432406,2,2,2,2
2025-08-21 12:04:14.265,-394477,-425840,-427523,-432407,2,2,2,2
2025-08-21 12:04:14.265,-394442,-425836,-444160,-432403,2,2,2,2
2025-08-21 12:04:14.266,-394486,-425846,-427535,-432414,2,2,2,2
2025-08-21 12:04:14.266,-394248,-425927,-427551,-448846,2,2,2,2
2025-08-21 12:04:14.266,-394257,-425869,-443973,-432502,2,2,2,2
2025-08-21 12:04:14.266,-394243,-425857,-427545,-432427,2,2,2,2
2025-08-21 12:04:14.267,-394477,-409387,-427776,-448790,2,2,2,2
2025-08-21 12:04:14.267,-394468,-425759,-427768,-432399,2,2,2,2
2025-08-21 12:04:14.267,-394473,-425764,-427770,-448782,2,2,2,2
2025-08-21 12:04:14.267,-394488,-425844,-443913,-432415,2,2,2,2
2025-08-21 12:04:14.268,-394490,-425844,-443918,-432415,2,2,2,2
2025-08-21 12:04:14.268,-394496,-409463,-427539,-448871,2,2,2,2
2025-08-21 12:04:14.268,-394294,-425864,-427620,-432441,2,2,2,2
2025-08-21 12:04:14.268,-394279,-425878,-444020,-432519,2,2,2,2
2025-08-21 12:04:14.269,-394441,-425975,-444081,-432617,2,2,2,2
2025-08-21 12:04:14.269,-394466,-442381,-427752,-440830,2,2,2,2
2025-08-21 12:04:14.269,-394479,-426010,-427765,-432395,2,2,2,2
2025-08-21 12:04:14.270,-394480,-426012,-444150,-432399,2,2,2,2
2025-08-21 12:04:14.270,-394483,-426022,-427772,-432403,2,2,2,2
2025-08-21 12:04:14.270,-394478,-426085,-427767,-432398,2,2,2,2
2025-08-21 12:04:14.271,-394483,-426091,-427776,-432405,2,2,2,2
2025-08-21 12:04:14.271,-394494,-426101,-444172,-432414,2,2,2,2
2025-08-21 12:04:14.272,-394471,-426009,-427754,-432390,2,2,2,2
2025-08-21 12:04:14.272,-394466,-426003,-427752,-432386,2,2,2,2
2025-08-21 12:04:14.272,-394466,-426007,-427757,-432390,2,2,2,2
2025-08-21 12:04:14.272,-394455,-425995,-444096,-432634,2,2,2,2
2025-08-21 12:04:14.273,-394398,-425999,-427749,-432634,2,2,2,2
2025-08-21 12:04:14.273,-394396,-425998,-427748,-432631,2,2,2,2
2025-08-21 12:04:14.273,-394389,-425989,-427677,-448976,2,2,2,2
2025-08-21 12:04:14.274,-394378,-425978,-427667,-448965,2,2,2,2
2025-08-21 12:04:14.274,-394450,-425981,-444089,-432620,2,2,2,2
2025-08-21 12:04:14.274,-394455,-425989,-444094,-432630,2,2,2,2
2025-08-21 12:04:14.274,-394419,-425990,-427672,-432627,2,2,2,2
2025-08-21 12:04:14.275,-394379,-425982,-427728,-432619,2,2,2,2
2025-08-21 12:04:14.275,-394372,-425981,-427660,-449002,2,2,2,2
2025-08-21 12:04:14.275,-394374,-425987,-427666,-448975,2,2,2,2
2025-08-21 12:04:14.275,-394385,-442417,-427676,-440826,2,2,2,2
2025-08-21 12:04:14.276,-394388,-442423,-427678,-440832,2,2,2,2
2025-08-21 12:04:14.276,-394382,-426000,-427668,-432633,2,2,2,2
2025-08-21 12:04:14.276,-394382,-425998,-444051,-432630,2,2,2,2
2025-08-21 12:04:14.276,-394369,-425983,-427650,-432617,2,2,2,2
2025-08-21 12:04:14.277,-394285,-425962,-443982,-432535,2,2,2,2
2025-08-21 12:04:14.277,-394259,-409485,-427542,-440700,2,2,2,2
2025-08-21 12:04:14.277,-394248,-409476,-427532,-448881,2,2,2,2
2025-08-21 12:04:14.277,-394250,-425863,-427538,-432500,2,2,2,2
2025-08-21 12:04:14.278,-394243,-425859,-427537,-432500,2,2,2,2
2025-08-21 12:04:14.278,-394255,-425933,-427548,-448831,2,2,2,2
2025-08-21 12:04:14.278,-394363,-425975,-427656,-432614,2,2,2,2
2025-08-21 12:04:14.278,-394468,-426011,-427760,-432399,2,2,2,2
2025-08-21 12:04:14.279,-394495,-426100,-427789,-432423,2,2,2,2
2025-08-21 12:04:14.279,-394528,-426137,-427822,-432517,2,2,2,2
2025-08-21 12:04:14.279,-394656,-442384,-428010,-440828,2,2,2,2
2025-08-21 12:04:14.280,-394721,-426004,-444394,-432636,2,2,2,2
2025-08-21 12:04:14.280,-394725,-442389,-428010,-449022,2,2,2,2
2025-08-21 12:04:14.280,-394722,-426004,-428006,-449021,2,2,2,2
2025-08-21 12:04:14.280,-394720,-425999,-444353,-432630,2,2,2,2
2025-08-21 12:04:14.281,-394649,-425992,-427933,-432621,2,2,2,2
2025-08-21 12:04:14.281,-394656,-425997,-428005,-432627,2,2,2,2
2025-08-21 12:04:14.281,-394723,-426000,-428011,-432627,2,2,2,2
2025-08-21 12:04:14.282,-394713,-425996,-444390,-432620,2,2,2,2
2025-08-21 12:04:14.282,-394700,-425985,-444349,-432611,2,2,2,2
2025-08-21 12:04:14.282,-394633,-442618,-427930,-440804,2,2,2,2
2025-08-21 12:04:14.282,-394628,-426229,-427990,-432543,2,2,2,2
2025-08-21 12:04:14.283,-394623,-426224,-427980,-432538,2,2,2,2
2025-08-21 12:04:14.283,-394622,-426224,-427917,-448955,2,2,2,2
2025-08-21 12:04:14.283,-394690,-426224,-444302,-432540,2,2,2,2
2025-08-21 12:04:14.283,-394623,-426223,-427916,-432605,2,2,2,2
2025-08-21 12:04:14.284,-394621,-442573,-427910,-448923,2,2,2,2
2025-08-21 12:04:14.284,-394620,-426220,-427910,-432600,2,2,2,2
2025-08-21 12:04:14.284,-394615,-426215,-427840,-432533,2,2,2,2
2025-08-21 12:04:14.284,-394608,-426211,-427898,-448910,2,2,2,2
2025-08-21 12:04:14.285,-394545,-426212,-444282,-432526,2,2,2,2
2025-08-21 12:04:14.285,-394624,-442611,-427911,-440732,2,2,2,2
2025-08-21 12:04:14.285,-394637,-425985,-427927,-432621,2,2,2,2
2025-08-21 12:04:14.285,-394634,-426235,-444307,-432616,2,2,2,2
2025-08-21 12:04:14.286,-394705,-425986,-444339,-432617,2,2,2,2
2025-08-21 12:04:14.286,-394638,-442622,-427915,-440806,2,2,2,2
2025-08-21 12:04:14.286,-394626,-426224,-427904,-432604,2,2,2,2
2025-08-21 12:04:14.287,-394615,-426212,-427891,-432591,2,2,2,2
2025-08-21 12:04:14.287,-394611,-426211,-427822,-432524,2,2,2,2
2025-08-21 12:04:14.287,-394601,-426205,-427875,-448830,2,2,2,2
2025-08-21 12:04:14.287,-394521,-426128,-444210,-432496,2,2,2,2
2025-08-21 12:04:14.288,-394519,-426123,-427788,-432494,2,2,2,2
2025-08-21 12:04:14.288,-394599,-442587,-427805,-448890,2,2,2,2
2025-08-21 12:04:14.288,-394549,-426217,-444268,-432523,2,2,2,2
2025-08-21 12:04:14.288,-394614,-426218,-427890,-448912,2,2,2,2
2025-08-21 12:04:14.289,-394601,-426206,-427883,-432581,2,2,2,2
2025-08-21 12:04:14.289,-394516,-426122,-444184,-432497,2,2,2,2
2025-08-21 12:04:14.289,-394496,-442420,-427778,-448791,2,2,2,2
2025-08-21 12:04:14.289,-394484,-426085,-444156,-432394,2,2,2,2
2025-08-21 12:04:14.290,-394474,-426009,-444147,-432390,2,2,2,2
2025-08-21 12:04:14.290,-394383,-425983,-427671,-432621,2,2,2,2
2025-08-21 12:04:14.290,-394375,-425969,-427724,-432614,2,2,2,2
2025-08-21 12:04:14.291,-394361,-425955,-427649,-448920,2,2,2,2
2025-08-21 12:04:14.291,-394300,-425960,-444036,-432536,2,2,2,2
2025-08-21 12:04:14.291,-394377,-425969,-427663,-432608,2,2,2,2
2025-08-21 12:04:14.292,-394437,-425964,-444107,-432540,2,2,2,2
2025-08-21 12:04:14.292,-394369,-425954,-444037,-432598,2,2,2,2
2025-08-21 12:04:14.292,-394372,-425958,-427654,-448948,2,2,2,2
2025-08-21 12:04:14.292,-394435,-425958,-444102,-432529,2,2,2,2
2025-08-21 12:04:14.293,-394373,-409581,-427655,-440727,2,2,2,2
2025-08-21 12:04:14.293,-394357,-425884,-427638,-432583,2,2,2,2
2025-08-21 12:04:14.293,-394341,-425870,-427559,-432506,2,2,2,2
2025-08-21 12:04:14.293,-394265,-425928,-427550,-448847,2,2,2,2
2025-08-21 12:04:14.294,-394259,-425926,-427547,-448842,2,2,2,2
2025-08-21 12:04:14.294,-394257,-425858,-443959,-432485,2,2,2,2
2025-08-21 12:04:14.294,-394258,-409479,-427547,-440682,2,2,2,2
2025-08-21 12:04:14.294,-394266,-425931,-427550,-448878,2,2,2,2
2025-08-21 12:04:14.295,-394257,-425859,-427543,-432486,2,2,2,2
2025-08-21 12:04:14.295,-394242,-425781,-427527,-448822,2,2,2,2
2025-08-21 12:04:14.295,-394481,-425758,-427762,-448772,2,2,2,2
2025-08-21 12:04:14.295,-394486,-425827,-427768,-432398,2,2,2,2
2025-08-21 12:04:14.296,-394494,-409421,-427775,-448794,2,2,2,2
2025-08-21 12:04:14.296,-394486,-425831,-427769,-432402,2,2,2,2
2025-08-21 12:04:14.296,-394470,-425752,-444142,-432388,2,2,2,2
2025-08-21 12:04:14.296,-394476,-425758,-427767,-432398,2,2,2,2
2025-08-21 12:04:14.297,-394489,-425834,-443908,-432410,2,2,2,2
2025-08-21 12:04:14.297,-394491,-409420,-427526,-440601,2,2,2,2
2025-08-21 12:04:14.297,-394496,-409393,-427528,-448795,2,2,2,2
2025-08-21 12:04:14.297,-394495,-425840,-443911,-432405,2,2,2,2
2025-08-21 12:04:14.298,-394248,-425783,-427534,-432418,2,2,2,2
2025-08-21 12:04:14.298,-394260,-425860,-443933,-432495,2,2,2,2
2025-08-21 12:04:14.298,-394341,-425941,-427634,-448900,2,2,2,2
2025-08-21 12:04:14.299,-394320,-425886,-444027,-432524,2,2,2,2
2025-08-21 12:04:14.299,-394454,-425992,-427753,-432632,2,2,2,2
2025-08-21 12:04:14.300,-394466,-425998,-427760,-432640,2,2,2,2
2025-08-21 12:04:14.300,-394465,-425991,-427755,-449018,2,2,2,2
2025-08-21 12:04:14.300,-394379,-425973,-427670,-448963,2,2,2,2
2025-08-21 12:04:14.300,-394438,-425966,-444048,-432542,2,2,2,2
2025-08-21 12:04:14.301,-394385,-425979,-427678,-432618,2,2,2,2
2025-08-21 12:04:14.301,-394449,-425986,-427748,-432623,2,2,2,2
2025-08-21 12:04:14.301,-394379,-425982,-427743,-432619,2,2,2,2
2025-08-21 12:04:14.301,-394380,-425979,-427739,-432618,2,2,2,2
2025-08-21 12:04:14.302,-394392,-409596,-427673,-440819,2,2,2,2
2025-08-21 12:04:14.302,-394385,-409590,-427670,-440812,2,2,2,2
2025-08-21 12:04:14.302,-394369,-425964,-427719,-432542,2,2,2,2
2025-08-21 12:04:14.303,-394356,-425954,-427643,-448910,2,2,2,2
2025-08-21 12:04:14.303,-394358,-425955,-427644,-448911,2,2,2,2
2025-08-21 12:04:14.303,-394288,-425883,-444018,-432516,2,2,2,2
2025-08-21 12:04:14.303,-394359,-409537,-427641,-440709,2,2,2,2
2025-08-21 12:04:14.304,-394372,-425961,-427648,-432587,2,2,2,2
2025-08-21 12:04:14.304,-394372,-425959,-427584,-432520,2,2,2,2
2025-08-21 12:04:14.304,-394437,-425960,-444097,-432521,2,2,2,2
2025-08-21 12:04:14.305,-394365,-409569,-427641,-440704,2,2,2,2
2025-08-21 12:04:14.305,-394350,-409529,-427630,-448890,2,2,2,2
2025-08-21 12:04:14.305,-394306,-425873,-427551,-432430,2,2,2,2
2025-08-21 12:04:14.305,-394264,-425923,-427543,-448805,2,2,2,2
2025-08-21 12:04:14.306,-394248,-425784,-427533,-448791,2,2,2,2
2025-08-21 12:04:14.306,-394242,-425842,-427526,-432400,2,2,2,2
2025-08-21 12:04:14.306,-394495,-409424,-427524,-440591,2,2,2,2
2025-08-21 12:04:14.306,-394488,-425830,-444156,-432392,2,2,2,2
2025-08-21 12:04:14.307,-394491,-425832,-444160,-432400,2,2,2,2
2025-08-21 12:04:14.307,-394249,-425789,-427541,-432417,2,2,2,2
2025-08-21 12:04:14.307,-394349,-409565,-427638,-448898,2,2,2,2
2025-08-21 12:04:14.308,-394366,-425962,-427718,-432527,2,2,2,2
2025-08-21 12:04:14.308,-394365,-425959,-427649,-448945,2,2,2,2
2025-08-21 12:04:14.308,-394378,-425975,-427661,-432604,2,2,2,2
2025-08-21 12:04:14.309,-394442,-425979,-444112,-432542,2,2,2,2
2025-08-21 12:04:14.309,-394377,-425984,-427733,-432609,2,2,2,2
2025-08-21 12:04:14.309,-394369,-425974,-427660,-448922,2,2,2,2
2025-08-21 12:04:14.309,-394296,-425962,-444029,-432526,2,2,2,2
2025-08-21 12:04:14.310,-394360,-425958,-427643,-432582,2,2,2,2
2025-08-21 12:04:14.310,-394293,-425958,-427576,-432516,2,2,2,2
2025-08-21 12:04:14.310,-394295,-425959,-444027,-432515,2,2,2,2
2025-08-21 12:04:14.311,-394361,-425962,-427650,-448904,2,2,2,2
2025-08-21 12:04:14.311,-394435,-425973,-444047,-432532,2,2,2,2
2025-08-21 12:04:14.311,-394371,-409591,-427664,-440730,2,2,2,2
2025-08-21 12:04:14.311,-394376,-425981,-427737,-432610,2,2,2,2
2025-08-21 12:04:14.312,-394389,-442377,-427751,-449008,2,2,2,2
2025-08-21 12:04:14.312,-394395,-425998,-427760,-449011,2,2,2,2
2025-08-21 12:04:14.312,-394463,-426000,-444147,-432631,2,2,2,2
2025-08-21 12:04:14.312,-394476,-426008,-444154,-432640,2,2,2,2
2025-08-21 12:04:14.313,-394490,-442436,-427782,-440592,2,2,2,2
2025-08-21 12:04:14.313,-394499,-426092,-427790,-432408,2,2,2,2
2025-08-21 12:04:14.313,-394514,-426107,-427800,-432487,2,2,2,2
2025-08-21 12:04:14.313,-394608,-426203,-427894,-448964,2,2,2,2
2025-08-21 12:04:14.314,-394700,-426234,-444339,-432609,2,2,2,2
2025-08-21 12:04:14.314,-394640,-442620,-427926,-440807,2,2,2,2
2025-08-21 12:04:14.314,-394636,-426228,-427919,-432609,2,2,2,2
2025-08-21 12:04:14.314,-394646,-426239,-427929,-449000,2,2,2,2
2025-08-21 12:04:14.315,-394735,-426012,-428026,-432644,2,2,2,2
2025-08-21 12:04:14.315,-394500,-426032,-427792,-449052,2,2,2,2
2025-08-21 12:04:14.315,-394510,-426108,-444216,-432743,2,2,2,2
2025-08-21 12:04:14.315,-394522,-426119,-427877,-432687,2,2,2,2
2025-08-21 12:04:14.316,-394564,-426127,-427888,-432701,2,2,2,2
2025-08-21 12:04:14.316,-394596,-426129,-427829,-432765,2,2,2,2
2025-08-21 12:04:14.316,-394600,-426195,-427892,-449152,2,2,2,2
2025-08-21 12:04:14.316,-394520,-426179,-427873,-432688,2,2,2,2
2025-08-21 12:04:14.317,-394504,-426099,-444176,-432668,2,2,2,2
2025-08-21 12:04:14.317,-394744,-442406,-428032,-449034,2,2,2,2
2025-08-21 12:04:14.317,-394693,-426001,-444399,-432631,2,2,2,2
2025-08-21 12:04:14.317,-394704,-426234,-444314,-432544,2,2,2,2
2025-08-21 12:04:14.318,-394620,-426213,-427911,-448972,2,2,2,2
2025-08-21 12:04:14.318,-394550,-426142,-444288,-432520,2,2,2,2
2025-08-21 12:04:14.318,-394606,-442550,-427891,-448893,2,2,2,2
2025-08-21 12:04:14.318,-394605,-426197,-427890,-448891,2,2,2,2
2025-08-21 12:04:14.319,-394516,-426111,-444191,-432488,2,2,2,2
2025-08-21 12:04:14.319,-394489,-426020,-427779,-432396,2,2,2,2
2025-08-21 12:04:14.319,-394498,-426091,-427786,-432404,2,2,2,2
2025-08-21 12:04:14.320,-394505,-442422,-427798,-448794,2,2,2,2
2025-08-21 12:04:14.320,-394545,-426109,-444190,-432481,2,2,2,2
2025-08-21 12:04:14.320,-394520,-426114,-444260,-432486,2,2,2,2
2025-08-21 12:04:14.320,-394528,-442505,-427883,-440686,2,2,2,2
2025-08-21 12:04:14.321,-394512,-426107,-427805,-432416,2,2,2,2
2025-08-21 12:04:14.321,-394495,-426089,-427789,-432397,2,2,2,2
2025-08-21 12:04:14.321,-394502,-426030,-427794,-448790,2,2,2,2
2025-08-21 12:04:14.321,-394506,-426101,-444217,-432416,2,2,2,2
2025-08-21 12:04:14.322,-394501,-442479,-427793,-440599,2,2,2,2
2025-08-21 12:04:14.322,-394502,-426096,-427797,-432409,2,2,2,2
2025-08-21 12:04:14.322,-394511,-426101,-427805,-432415,2,2,2,2
2025-08-21 12:04:14.323,-394495,-426021,-427788,-448782,2,2,2,2
2025-08-21 12:04:14.323,-394491,-426013,-444165,-432393,2,2,2,2
2025-08-21 12:04:14.323,-394485,-442389,-427775,-440831,2,2,2,2
2025-08-21 12:04:14.323,-394493,-426011,-444161,-432388,2,2,2,2
2025-08-21 12:04:14.324,-394481,-426004,-427768,-432636,2,2,2,2
2025-08-21 12:04:14.324,-394474,-425998,-427759,-449011,2,2,2,2
2025-08-21 12:04:14.324,-394488,-426012,-427773,-448769,2,2,2,2
2025-08-21 12:04:14.324,-394500,-442438,-427785,-440587,2,2,2,2
2025-08-21 12:04:14.325,-394503,-442440,-427785,-440589,2,2,2,2
2025-08-21 12:04:14.325,-394487,-426010,-427773,-432386,2,2,2,2
2025-08-21 12:04:14.325,-394486,-426013,-427774,-432393,2,2,2,2
2025-08-21 12:04:14.325,-394488,-426018,-427772,-432396,2,2,2,2
2025-08-21 12:04:14.326,-394475,-426006,-444110,-432388,2,2,2,2
2025-08-21 12:04:14.326,-394480,-442424,-427762,-440583,2,2,2,2
2025-08-21 12:04:14.326,-394494,-442404,-427774,-448782,2,2,2,2
2025-08-21 12:04:14.326,-394507,-426036,-427790,-448829,2,2,2,2
2025-08-21 12:04:14.327,-394523,-426179,-427807,-448810,2,2,2,2
2025-08-21 12:04:14.327,-394520,-426111,-444185,-432486,2,2,2,2
2025-08-21 12:04:14.327,-394559,-426112,-427805,-432423,2,2,2,2
2025-08-21 12:04:14.328,-394605,-426189,-427881,-448887,2,2,2,2
2025-08-21 12:04:14.328,-394557,-426137,-444279,-432522,2,2,2,2
2025-08-21 12:04:14.328,-394726,-442370,-428003,-440819,2,2,2,2
2025-08-21 12:04:14.329,-394718,-426235,-427993,-432616,2,2,2,2
2025-08-21 12:04:14.329,-394635,-442602,-427910,-448914,2,2,2,2
2025-08-21 12:04:14.329,-394630,-426218,-427903,-448911,2,2,2,2
2025-08-21 12:04:14.329,-394702,-426225,-444291,-432534,2,2,2,2
2025-08-21 12:04:14.330,-394649,-442616,-427917,-440729,2,2,2,2
2025-08-21 12:04:14.330,-394656,-426238,-427924,-432605,2,2,2,2
2025-08-21 12:04:14.330,-394654,-426237,-427985,-432543,2,2,2,2
2025-08-21 12:04:14.330,-394698,-426219,-444288,-432525,2,2,2,2
2025-08-21 12:04:14.331,-394616,-426204,-427888,-448891,2,2,2,2
2025-08-21 12:04:14.331,-394551,-426140,-444275,-432509,2,2,2,2
2025-08-21 12:04:14.331,-394631,-426224,-427906,-432591,2,2,2,2
2025-08-21 12:04:14.331,-394645,-425985,-427985,-432609,2,2,2,2
2025-08-21 12:04:14.332,-394654,-425993,-427930,-448970,2,2,2,2
2025-08-21 12:04:14.337,-394734,-426008,-428013,-449019,2,2,2,2
2025-08-21 12:04:14.337,-394732,-426003,-444359,-432635,2,2,2,2
2025-08-21 12:04:14.338,-394715,-426240,-444375,-432619,2,2,2,2
2025-08-21 12:04:14.338,-394640,-442617,-427917,-448926,2,2,2,2
2025-08-21 12:04:14.338,-394679,-426238,-427924,-432611,2,2,2,2
2025-08-21 12:04:14.338,-394641,-426229,-427919,-448958,2,2,2,2
2025-08-21 12:04:14.338,-394627,-426213,-427906,-448971,2,2,2,2
2025-08-21 12:04:14.338,-394551,-426134,-444279,-432511,2,2,2,2
2025-08-21 12:04:14.338,-394607,-442546,-427889,-440694,2,2,2,2
2025-08-21 12:04:14.338,-394551,-426107,-427805,-432412,2,2,2,2
2025-08-21 12:04:14.338,-394513,-426039,-427801,-448790,2,2,2,2
2025-08-21 12:04:14.338,-394481,-426011,-444161,-432385,2,2,2,2
2025-08-21 12:04:14.338,-394479,-442424,-427771,-440577,2,2,2,2
2025-08-21 12:04:14.338,-394477,-426001,-427765,-432636,2,2,2,2
2025-08-21 12:04:14.338,-394485,-426005,-444149,-432638,2,2,2,2
2025-08-21 12:04:14.338,-394475,-426002,-427757,-449015,2,2,2,2
2025-08-21 12:04:14.338,-394486,-426009,-444150,-432640,2,2,2,2
2025-08-21 12:04:14.338,-394487,-426011,-427768,-432640,2,2,2,2
2025-08-21 12:04:14.338,-394490,-426013,-427771,-432639,2,2,2,2
2025-08-21 12:04:14.339,-394495,-426082,-427774,-432386,2,2,2,2
2025-08-21 12:04:14.339,-394500,-442438,-427777,-440578,2,2,2,2
2025-08-21 12:04:14.339,-394487,-426009,-427763,-432632,2,2,2,2
2025-08-21 12:04:14.339,-394459,-425984,-427735,-432609,2,2,2,2
2025-08-21 12:04:14.339,-394395,-409598,-427672,-448995,2,2,2,2
2025-08-21 12:04:14.339,-394452,-425974,-444081,-432535,2,2,2,2
2025-08-21 12:04:14.339,-394389,-425970,-427667,-432595,2,2,2,2
2025-08-21 12:04:14.339,-394443,-425958,-444105,-432519,2,2,2,2
2025-08-21 12:04:14.339,-394380,-425959,-427720,-432523,2,2,2,2
2025-08-21 12:04:14.340,-394360,-425942,-427637,-448888,2,2,2,2
2025-08-21 12:04:14.340,-394280,-425867,-444006,-432491,2,2,2,2
2025-08-21 12:04:14.340,-394356,-425879,-427628,-432432,2,2,2,2
2025-08-21 12:04:14.341,-394296,-425882,-427568,-432499,2,2,2,2
2025-08-21 12:04:14.341,-394360,-425947,-427633,-448885,2,2,2,2
2025-08-21 12:04:14.341,-394295,-425884,-444021,-432504,2,2,2,2
2025-08-21 12:04:14.341,-394360,-409498,-427635,-440697,2,2,2,2
2025-08-21 12:04:14.342,-394373,-425957,-444027,-432581,2,2,2,2
2025-08-21 12:04:14.342,-394367,-425888,-427573,-432511,2,2,2,2
2025-08-21 12:04:14.343,-394288,-425886,-444019,-432501,2,2,2,2
2025-08-21 12:04:14.343,-394353,-409569,-427636,-432500,2,2,2,2
2025-08-21 12:04:14.343,-394361,-409542,-427643,-440702,2,2,2,2
2025-08-21 12:04:14.343,-394362,-425961,-427642,-448896,2,2,2,2
2025-08-21 12:04:14.344,-394370,-425962,-427582,-432516,2,2,2,2
2025-08-21 12:04:14.344,-394366,-425956,-427641,-448893,2,2,2,2
2025-08-21 12:04:14.344,-394377,-425967,-427649,-432581,2,2,2,2
2025-08-21 12:04:14.344,-394392,-409596,-427664,-448918,2,2,2,2
2025-08-21 12:04:14.345,-394393,-425982,-427664,-432604,2,2,2,2
2025-08-21 12:04:14.345,-394381,-425969,-427715,-432530,2,2,2,2
2025-08-21 12:04:14.345,-394376,-425958,-427645,-432586,2,2,2,2
2025-08-21 12:04:14.346,-394445,-425964,-444098,-432526,2,2,2,2
2025-08-21 12:04:14.346,-394467,-442373,-427676,-448998,2,2,2,2
2025-08-21 12:04:14.346,-394484,-426005,-427755,-449011,2,2,2,2
2025-08-21 12:04:14.347,-394510,-426028,-427782,-448775,2,2,2,2
2025-08-21 12:04:14.347,-394528,-426105,-444216,-432405,2,2,2,2
2025-08-21 12:04:14.347,-394536,-426112,-427809,-432482,2,2,2,2
2025-08-21 12:04:14.347,-394571,-426112,-427875,-432421,2,2,2,2
2025-08-21 12:04:14.348,-394569,-426109,-444192,-432485,2,2,2,2
2025-08-21 12:04:14.348,-394610,-426184,-427881,-432432,2,2,2,2
2025-08-21 12:04:14.348,-394593,-426104,-427801,-432418,2,2,2,2
2025-08-21 12:04:14.349,-394514,-442441,-427783,-448786,2,2,2,2
2025-08-21 12:04:14.349,-394508,-426084,-444157,-432392,2,2,2,2
2025-08-21 12:04:14.349,-394492,-426004,-444143,-432635,2,2,2,2
2025-08-21 12:04:14.349,-394488,-425994,-444106,-432626,2,2,2,2
2025-08-21 12:04:14.350,-394478,-425981,-427680,-432616,2,2,2,2
2025-08-21 12:04:14.350,-394472,-425974,-427736,-432611,2,2,2,2
2025-08-21 12:04:14.350,-394476,-425976,-427676,-449000,2,2,2,2
2025-08-21 12:04:14.350,-394469,-425966,-444054,-432542,2,2,2,2
2025-08-21 12:04:14.351,-394462,-425959,-444046,-432535,2,2,2,2
2025-08-21 12:04:14.351,-394468,-409583,-427671,-440734,2,2,2,2
2025-08-21 12:04:14.351,-394466,-425967,-427669,-432604,2,2,2,2
2025-08-21 12:04:14.351,-394467,-425968,-427733,-432541,2,2,2,2
2025-08-21 12:04:14.352,-394478,-425977,-427679,-448966,2,2,2,2
2025-08-21 12:04:14.352,-394479,-425981,-444132,-432621,2,2,2,2
2025-08-21 12:04:14.352,-394469,-409587,-427677,-432612,2,2,2,2
2025-08-21 12:04:14.352,-394387,-425888,-427659,-432594,2,2,2,2
2025-08-21 12:04:14.353,-394383,-425885,-427718,-432524,2,2,2,2
2025-08-21 12:04:14.353,-394384,-425882,-427719,-432523,2,2,2,2
2025-08-21 12:04:14.353,-394374,-425938,-427645,-448895,2,2,2,2
2025-08-21 12:04:14.353,-394367,-409483,-427636,-440695,2,2,2,2
2025-08-21 12:04:14.354,-394372,-409487,-427640,-440700,2,2,2,2
2025-08-21 12:04:14.354,-394379,-425872,-427645,-432578,2,2,2,2
2025-08-21 12:04:14.354,-394389,-425882,-427717,-432524,2,2,2,2
2025-08-21 12:04:14.354,-394380,-425938,-427643,-448832,2,2,2,2
2025-08-21 12:04:14.355,-394366,-425926,-427629,-448817,2,2,2,2
2025-08-21 12:04:14.355,-394287,-425851,-443969,-432486,2,2,2,2
2025-08-21 12:04:14.355,-394337,-409422,-427540,-448796,2,2,2,2
2025-08-21 12:04:14.355,-394266,-425837,-443919,-432409,2,2,2,2
2025-08-21 12:04:14.356,-394265,-425770,-427534,-448825,2,2,2,2
2025-08-21 12:04:14.356,-394249,-425754,-427773,-448775,2,2,2,2
2025-08-21 12:04:14.356,-394493,-425744,-444148,-432382,2,2,2,2
2025-08-21 12:04:14.356,-394483,-409350,-427754,-448755,2,2,2,2
2025-08-21 12:04:14.357,-394481,-409347,-427747,-448751,2,2,2,2
2025-08-21 12:04:14.357,-394481,-425984,-444129,-432362,2,2,2,2
2025-08-21 12:04:14.357,-394480,-425983,-427679,-448710,2,2,2,2
2025-08-21 12:04:14.357,-394481,-425983,-427680,-432357,2,2,2,2
2025-08-21 12:04:14.358,-394475,-425975,-444119,-432288,2,2,2,2
2025-08-21 12:04:14.358,-394473,-409589,-427669,-448669,2,2,2,2
2025-08-21 12:04:14.358,-394486,-425731,-444131,-432365,2,2,2,2
2025-08-21 12:04:14.359,-394490,-425742,-427752,-432372,2,2,2,2
2025-08-21 12:04:14.359,-394482,-425733,-427741,-432367,2,2,2,2
2025-08-21 12:04:14.359,-394475,-425978,-427730,-432360,2,2,2,2
2025-08-21 12:04:14.360,-394463,-425967,-444041,-432286,2,2,2,2
2025-08-21 12:04:14.360,-394368,-425941,-427632,-432191,2,2,2,2
2025-08-21 12:04:14.360,-394376,-409564,-427639,-448647,2,2,2,2
2025-08-21 12:04:14.361,-394386,-425962,-427581,-432272,2,2,2,2
2025-08-21 12:04:14.361,-394392,-425969,-427650,-448694,2,2,2,2
2025-08-21 12:04:14.361,-394455,-425965,-444033,-432278,2,2,2,2
2025-08-21 12:04:14.361,-394384,-409538,-427641,-440465,2,2,2,2
2025-08-21 12:04:14.362,-394378,-425878,-427632,-432326,2,2,2,2
2025-08-21 12:04:14.362,-394374,-425871,-427567,-432259,2,2,2,2
2025-08-21 12:04:14.362,-394364,-425925,-427620,-448635,2,2,2,2
2025-08-21 12:04:14.362,-394291,-425853,-443962,-432239,2,2,2,2
2025-08-21 12:04:14.363,-394297,-425858,-443967,-432243,2,2,2,2
2025-08-21 12:04:14.363,-394365,-409479,-427552,-440438,2,2,2,2
2025-08-21 12:04:14.363,-394300,-425861,-427553,-432242,2,2,2,2
2025-08-21 12:04:14.363,-394364,-425925,-427551,-448623,2,2,2,2
2025-08-21 12:04:14.364,-394354,-425786,-427540,-448582,2,2,2,2
2025-08-21 12:04:14.364,-394266,-425826,-443902,-432146,2,2,2,2
2025-08-21 12:04:14.364,-394231,-409348,-427423,-440563,2,2,2,2
2025-08-21 12:04:14.364,-394183,-425719,-427410,-432357,2,2,2,2
2025-08-21 12:04:14.365,-394229,-425737,-427490,-432376,2,2,2,2
2025-08-21 12:04:14.365,-394250,-425759,-427511,-448525,2,2,2,2
2025-08-21 12:04:14.365,-394269,-425777,-427530,-448575,2,2,2,2
2025-08-21 12:04:14.365,-394347,-425921,-427543,-432169,2,2,2,2
2025-08-21 12:04:14.366,-394366,-409524,-427624,-440444,2,2,2,2
2025-08-21 12:04:14.366,-394372,-425882,-427633,-432321,2,2,2,2
2025-08-21 12:04:14.366,-394372,-425886,-444020,-432255,2,2,2,2
2025-08-21 12:04:14.366,-394453,-425961,-444037,-432268,2,2,2,2
2025-08-21 12:04:14.367,-394467,-425975,-444048,-432281,2,2,2,2
2025-08-21 12:04:14.367,-394472,-409596,-427674,-440480,2,2,2,2
2025-08-21 12:04:14.367,-394474,-409600,-427680,-448743,2,2,2,2
2025-08-21 12:04:14.367,-394433,-425977,-444057,-432354,2,2,2,2
2025-08-21 12:04:14.368,-394469,-425980,-427736,-432357,2,2,2,2
2025-08-21 12:04:14.368,-394473,-425982,-427676,-448746,2,2,2,2
2025-08-21 12:04:14.368,-394483,-425733,-427751,-432369,2,2,2,2
2025-08-21 12:04:14.368,-394486,-409354,-427756,-440565,2,2,2,2
2025-08-21 12:04:14.369,-394445,-425731,-427747,-432366,2,2,2,2
2025-08-21 12:04:14.369,-394479,-425734,-427745,-432369,2,2,2,2
2025-08-21 12:04:14.369,-394252,-425754,-427765,-432392,2,2,2,2
2025-08-21 12:04:14.370,-394276,-425841,-443912,-432414,2,2,2,2
2025-08-21 12:04:14.370,-394364,-409548,-427619,-448889,2,2,2,2
2025-08-21 12:04:14.370,-394419,-425957,-444027,-432529,2,2,2,2
2025-08-21 12:04:14.370,-394397,-409581,-427651,-440729,2,2,2,2
2025-08-21 12:04:14.371,-394394,-409577,-427647,-432534,2,2,2,2
2025-08-21 12:04:14.371,-394457,-425960,-443964,-432533,2,2,2,2
2025-08-21 12:04:14.371,-394394,-425963,-427713,-432539,2,2,2,2
2025-08-21 12:04:14.371,-394440,-425882,-444020,-432527,2,2,2,2
2025-08-21 12:04:14.372,-394435,-425876,-444011,-432519,2,2,2,2
2025-08-21 12:04:14.372,-394349,-409468,-427545,-440686,2,2,2,2
2025-08-21 12:04:14.372,-394347,-425848,-427543,-432491,2,2,2,2
2025-08-21 12:04:14.373,-394351,-409400,-427547,-448876,2,2,2,2
2025-08-21 12:04:14.373,-394270,-425771,-427535,-448832,2,2,2,2
2025-08-21 12:04:14.373,-394259,-425828,-443909,-432410,2,2,2,2
2025-08-21 12:04:14.373,-394247,-425751,-427772,-432404,2,2,2,2
2025-08-21 12:04:14.374,-394496,-425748,-427768,-432395,2,2,2,2
2025-08-21 12:04:14.374,-394241,-425750,-427772,-432396,2,2,2,2
2025-08-21 12:04:14.374,-394246,-425754,-427776,-448817,2,2,2,2
2025-08-21 12:04:14.374,-394490,-425740,-444150,-432388,2,2,2,2
2025-08-21 12:04:14.375,-394480,-409351,-427758,-440573,2,2,2,2
2025-08-21 12:04:14.375,-394482,-425736,-427759,-432384,2,2,2,2
2025-08-21 12:04:14.375,-394483,-425738,-427760,-448767,2,2,2,2
2025-08-21 12:04:14.376,-394482,-425736,-427759,-448765,2,2,2,2
2025-08-21 12:04:14.376,-394487,-425738,-444145,-432383,2,2,2,2
2025-08-21 12:04:14.376,-394244,-409399,-427523,-440591,2,2,2,2
2025-08-21 12:04:14.376,-394249,-425756,-427527,-432403,2,2,2,2
2025-08-21 12:04:14.377,-394248,-425753,-427524,-432399,2,2,2,2
2025-08-21 12:04:14.377,-394495,-425745,-427766,-432390,2,2,2,2
2025-08-21 12:04:14.377,-394488,-425740,-427756,-448766,2,2,2,2
2025-08-21 12:04:14.377,-394479,-409349,-427751,-448760,2,2,2,2
2025-08-21 12:04:14.378,-394476,-425731,-427748,-432373,2,2,2,2
2025-08-21 12:04:14.378,-394484,-425743,-427758,-432383,2,2,2,2
2025-08-21 12:04:14.378,-394251,-425829,-427524,-432405,2,2,2,2
2025-08-21 12:04:14.379,-394263,-425769,-427536,-432413,2,2,2,2
2025-08-21 12:04:14.379,-394280,-425851,-443937,-432495,2,2,2,2
2025-08-21 12:04:14.379,-394344,-409405,-427622,-448879,2,2,2,2
2025-08-21 12:04:14.379,-394278,-425843,-443935,-432490,2,2,2,2
2025-08-21 12:04:14.380,-394348,-425787,-427618,-448821,2,2,2,2
2025-08-21 12:04:14.380,-394288,-425856,-443940,-432504,2,2,2,2
2025-08-21 12:04:14.380,-394363,-425868,-427630,-432445,2,2,2,2
2025-08-21 12:04:14.381,-394388,-425963,-427655,-448917,2,2,2,2
2025-08-21 12:04:14.381,-394457,-425969,-444044,-432536,2,2,2,2
2025-08-21 12:04:14.381,-394464,-425974,-444114,-432609,2,2,2,2
2025-08-21 12:04:14.382,-394472,-425980,-427739,-432617,2,2,2,2
2025-08-21 12:04:14.382,-394397,-409587,-427667,-448926,2,2,2,2
2025-08-21 12:04:14.382,-394458,-425965,-444048,-432543,2,2,2,2
2025-08-21 12:04:14.382,-394389,-425956,-427659,-448985,2,2,2,2
2025-08-21 12:04:14.383,-394382,-409501,-427653,-440728,2,2,2,2
2025-08-21 12:04:14.383,-394374,-425883,-427647,-432596,2,2,2,2
2025-08-21 12:04:14.383,-394373,-409561,-427648,-448915,2,2,2,2
2025-08-21 12:04:14.383,-394383,-425958,-427724,-432544,2,2,2,2
2025-08-21 12:04:14.384,-394454,-425965,-444052,-432611,2,2,2,2
2025-08-21 12:04:14.384,-394470,-425983,-427749,-432628,2,2,2,2
2025-08-21 12:04:14.384,-394397,-425974,-427739,-432618,2,2,2,2
2025-08-21 12:04:14.385,-394379,-425888,-427721,-432532,2,2,2,2
2025-08-21 12:04:14.385,-394364,-425934,-427638,-448902,2,2,2,2
2025-08-21 12:04:14.385,-394289,-425855,-443977,-432507,2,2,2,2
2025-08-21 12:04:14.385,-394350,-409466,-427621,-440697,2,2,2,2
2025-08-21 12:04:14.386,-394343,-425843,-427552,-432439,2,2,2,2
2025-08-21 12:04:14.386,-394346,-425840,-427550,-432501,2,2,2,2
2025-08-21 12:04:14.386,-394268,-425756,-427531,-432483,2,2,2,2
2025-08-21 12:04:14.386,-394260,-425749,-427523,-448793,2,2,2,2
2025-08-21 12:04:14.387,-394264,-425756,-443914,-432410,2,2,2,2
2025-08-21 12:04:14.387,-394272,-409412,-427540,-440608,2,2,2,2
2025-08-21 12:04:14.387,-394308,-425833,-427540,-432417,2,2,2,2
2025-08-21 12:04:14.388,-394356,-425786,-427619,-448846,2,2,2,2
2025-08-21 12:04:14.388,-394291,-425848,-443971,-432489,2,2,2,2
2025-08-21 12:04:14.388,-394287,-425847,-443935,-432485,2,2,2,2
2025-08-21 12:04:14.388,-394311,-425841,-443925,-432415,2,2,2,2
2025-08-21 12:04:14.389,-394303,-425837,-443915,-432411,2,2,2,2
2025-08-21 12:04:14.389,-394257,-425763,-427522,-448782,2,2,2,2
2025-08-21 12:04:14.389,-394247,-425757,-427771,-448775,2,2,2,2
2025-08-21 12:04:14.389,-394242,-425749,-427765,-432383,2,2,2,2
2025-08-21 12:04:14.390,-394241,-409360,-427767,-448764,2,2,2,2
2025-08-21 12:04:14.390,-394242,-425738,-427759,-432375,2,2,2,2
2025-08-21 12:04:14.390,-394242,-425735,-444138,-432372,2,2,2,2
2025-08-21 12:04:14.390,-394243,-425739,-427759,-432375,2,2,2,2
2025-08-21 12:04:14.391,-394250,-425746,-444150,-432383,2,2,2,2
2025-08-21 12:04:14.391,-394260,-409404,-427776,-440588,2,2,2,2
2025-08-21 12:04:14.391,-394343,-409387,-427535,-448795,2,2,2,2
2025-08-21 12:04:14.392,-394380,-425932,-427641,-432577,2,2,2,2
2025-08-21 12:04:14.392,-394390,-425877,-427649,-432585,2,2,2,2
2025-08-21 12:04:14.392,-394384,-425872,-444028,-432514,2,2,2,2
2025-08-21 12:04:14.393,-394366,-425851,-444007,-432499,2,2,2,2
2025-08-21 12:04:14.393,-394287,-425836,-443928,-432482,2,2,2,2
2025-08-21 12:04:14.393,-394272,-425754,-427523,-432402,2,2,2,2
2025-08-21 12:04:14.394,-394339,-425756,-427529,-432405,2,2,2,2
2025-08-21 12:04:14.394,-394351,-425770,-427543,-448865,2,2,2,2
2025-08-21 12:04:14.394,-394367,-425789,-427627,-448882,2,2,2,2
2025-08-21 12:04:14.394,-394367,-425851,-427630,-432433,2,2,2,2
2025-08-21 12:04:14.395,-394342,-409413,-427544,-440602,2,2,2,2
2025-08-21 12:04:14.395,-394338,-425826,-427542,-432409,2,2,2,2
2025-08-21 12:04:14.395,-394348,-425831,-427549,-432482,2,2,2,2
2025-08-21 12:04:14.395,-394365,-425784,-427627,-448883,2,2,2,2
2025-08-21 12:04:14.396,-394449,-425867,-444026,-432518,2,2,2,2
2025-08-21 12:04:14.396,-394394,-409493,-427648,-440717,2,2,2,2
2025-08-21 12:04:14.396,-394472,-425954,-427662,-432605,2,2,2,2
2025-08-21 12:04:14.396,-394504,-425985,-444139,-432633,2,2,2,2
2025-08-21 12:04:14.397,-394605,-426086,-427790,-432415,2,2,2,2
2025-08-21 12:04:14.397,-394630,-426048,-427878,-448889,2,2,2,2
2025-08-21 12:04:14.397,-394693,-426113,-444231,-432503,2,2,2,2
2025-08-21 12:04:14.397,-394620,-426104,-427805,-432431,2,2,2,2
2025-08-21 12:04:14.398,-394620,-442423,-427801,-448880,2,2,2,2
2025-08-21 12:04:14.398,-394621,-426105,-444185,-432496,2,2,2,2
2025-08-21 12:04:14.398,-394628,-426179,-427874,-448886,2,2,2,2
2025-08-21 12:04:14.398,-394704,-426130,-444273,-432518,2,2,2,2
2025-08-21 12:04:14.399,-394705,-426128,-444210,-432520,2,2,2,2
2025-08-21 12:04:14.399,-394640,-442511,-427887,-448903,2,2,2,2
2025-08-21 12:04:14.399,-394635,-426123,-427883,-432580,2,2,2,2
2025-08-21 12:04:14.399,-394700,-426123,-444266,-432517,2,2,2,2
2025-08-21 12:04:14.400,-394620,-426108,-427806,-432438,2,2,2,2
2025-08-21 12:04:14.400,-394628,-442495,-427877,-440699,2,2,2,2
2025-08-21 12:04:14.400,-394643,-442571,-427888,-448900,2,2,2,2
2025-08-21 12:04:14.401,-394717,-426129,-444281,-432522,2,2,2,2
2025-08-21 12:04:14.401,-394650,-426187,-427894,-432587,2,2,2,2
2025-08-21 12:04:14.401,-394713,-426122,-444213,-432523,2,2,2,2
2025-08-21 12:04:14.402,-394650,-426130,-427834,-432531,2,2,2,2
2025-08-21 12:04:14.402,-394690,-426139,-444293,-432537,2,2,2,2
2025-08-21 12:04:14.402,-394743,-426226,-427935,-449006,2,2,2,2
2025-08-21 12:04:14.403,-394499,-425985,-428010,-432635,2,2,2,2
2025-08-21 12:04:14.403,-394507,-425996,-428016,-432645,2,2,2,2
2025-08-21 12:04:14.403,-394504,-425994,-428015,-449027,2,2,2,2
2025-08-21 12:04:14.403,-394501,-425990,-444361,-432641,2,2,2,2
2025-08-21 12:04:14.404,-394504,-425985,-444356,-432638,2,2,2,2
2025-08-21 12:04:14.404,-394519,-426000,-428020,-432654,2,2,2,2
2025-08-21 12:04:14.404,-394533,-426014,-427777,-432667,2,2,2,2
2025-08-21 12:04:14.404,-394602,-426021,-427782,-449090,2,2,2,2
2025-08-21 12:04:14.405,-394614,-426029,-427791,-449095,2,2,2,2
2025-08-21 12:04:14.405,-394550,-426091,-444174,-432741,2,2,2,2
2025-08-21 12:04:14.405,-394609,-442468,-427783,-440861,2,2,2,2
2025-08-21 12:04:14.405,-394572,-426014,-427777,-432659,2,2,2,2
2025-08-21 12:04:14.406,-394606,-426083,-427778,-432662,2,2,2,2
2025-08-21 12:04:14.406,-394613,-426034,-427793,-449124,2,2,2,2
2025-08-21 12:04:14.406,-394600,-426024,-427784,-449089,2,2,2,2
2025-08-21 12:04:14.406,-394511,-442381,-428017,-440842,2,2,2,2
2025-08-21 12:04:14.407,-394749,-442617,-427933,-440822,2,2,2,2
2025-08-21 12:04:14.407,-394741,-426230,-427926,-432625,2,2,2,2
2025-08-21 12:04:14.407,-394699,-426222,-444302,-432613,2,2,2,2
2025-08-21 12:04:14.407,-394724,-426213,-427908,-432601,2,2,2,2
2025-08-21 12:04:14.408,-394715,-426136,-444276,-432525,2,2,2,2
2025-08-21 12:04:14.408,-394644,-442508,-427878,-440707,2,2,2,2
2025-08-21 12:04:14.408,-394634,-426115,-427802,-432441,2,2,2,2
2025-08-21 12:04:14.408,-394614,-426094,-427782,-432483,2,2,2,2
2025-08-21 12:04:14.409,-394523,-426000,-427758,-432390,2,2,2,2
2025-08-21 12:04:14.409,-394511,-425985,-427752,-449018,2,2,2,2
2025-08-21 12:04:14.409,-394517,-425989,-427763,-432387,2,2,2,2
2025-08-21 12:04:14.409,-394511,-425986,-427761,-432386,2,2,2,2
2025-08-21 12:04:14.410,-394505,-425981,-427757,-432635,2,2,2,2
2025-08-21 12:04:14.410,-394505,-425978,-427753,-432632,2,2,2,2
2025-08-21 12:04:14.410,-394518,-442381,-427773,-440587,2,2,2,2
2025-08-21 12:04:14.411,-394522,-426002,-444161,-432399,2,2,2,2
2025-08-21 12:04:14.411,-394513,-425990,-427771,-432390,2,2,2,2
2025-08-21 12:04:14.411,-394503,-425976,-444142,-432637,2,2,2,2
2025-08-21 12:04:14.412,-394484,-425959,-427676,-449002,2,2,2,2
2025-08-21 12:04:14.412,-394487,-425962,-444096,-432620,2,2,2,2
2025-08-21 12:04:14.412,-394490,-425964,-427743,-432620,2,2,2,2
2025-08-21 12:04:14.412,-394495,-425970,-427749,-449010,2,2,2,2
2025-08-21 12:04:14.413,-394503,-425980,-444143,-432633,2,2,2,2
2025-08-21 12:04:14.413,-394519,-425998,-427772,-448776,2,2,2,2
2025-08-21 12:04:14.413,-394528,-426009,-427783,-432402,2,2,2,2
2025-08-21 12:04:14.413,-394521,-442422,-427777,-448781,2,2,2,2
2025-08-21 12:04:14.414,-394513,-442381,-427769,-448772,2,2,2,2
2025-08-21 12:04:14.414,-394507,-425987,-444148,-432637,2,2,2,2
2025-08-21 12:04:14.414,-394481,-425961,-444057,-432610,2,2,2,2
2025-08-21 12:04:14.414,-394465,-425881,-427658,-432590,2,2,2,2
2025-08-21 12:04:14.415,-394448,-425867,-443961,-432506,2,2,2,2
2025-08-21 12:04:14.415,-394359,-409461,-427620,-448868,2,2,2,2
2025-08-21 12:04:14.415,-394346,-425768,-427547,-448792,2,2,2,2
2025-08-21 12:04:14.415,-394269,-425759,-427538,-448778,2,2,2,2
2025-08-21 12:04:14.416,-394270,-409409,-427531,-440584,2,2,2,2
2025-08-21 12:04:14.416,-394258,-425746,-427776,-432381,2,2,2,2
2025-08-21 12:04:14.416,-394256,-425746,-444158,-432385,2,2,2,2
2025-08-21 12:04:14.417,-394272,-425760,-427531,-448819,2,2,2,2
2025-08-21 12:04:14.417,-394276,-425826,-443917,-432410,2,2,2,2
2025-08-21 12:04:14.417,-394353,-409451,-427545,-440674,2,2,2,2
2025-08-21 12:04:14.417,-394359,-409457,-427618,-448873,2,2,2,2
2025-08-21 12:04:14.418,-394370,-425854,-427569,-432504,2,2,2,2
2025-08-21 12:04:14.418,-394378,-425863,-427578,-432508,2,2,2,2
2025-08-21 12:04:14.418,-394382,-425929,-427643,-448831,2,2,2,2
2025-08-21 12:04:14.418,-394390,-409487,-427652,-432521,2,2,2,2
2025-08-21 12:04:14.419,-394398,-425880,-427660,-432595,2,2,2,2
2025-08-21 12:04:14.419,-394420,-425872,-427652,-432591,2,2,2,2
2025-08-21 12:04:14.419,-394386,-425872,-427713,-432529,2,2,2,2
2025-08-21 12:04:14.419,-394381,-425933,-427648,-448908,2,2,2,2
2025-08-21 12:04:14.420,-394362,-425787,-427629,-432436,2,2,2,2
2025-08-21 12:04:14.420,-394293,-425846,-443942,-432490,2,2,2,2
2025-08-21 12:04:14.420,-394370,-409407,-427634,-448885,2,2,2,2
2025-08-21 12:04:14.420,-394442,-425862,-444023,-432508,2,2,2,2
2025-08-21 12:04:14.421,-394378,-425928,-427646,-448895,2,2,2,2
2025-08-21 12:04:14.421,-394385,-425935,-427655,-448967,2,2,2,2
2025-08-21 12:04:14.421,-394442,-425868,-444098,-432515,2,2,2,2
2025-08-21 12:04:14.421,-394387,-425940,-427654,-448905,2,2,2,2
2025-08-21 12:04:14.422,-394440,-425961,-427672,-432609,2,2,2,2
2025-08-21 12:04:14.422,-394473,-425967,-444056,-432611,2,2,2,2
2025-08-21 12:04:14.422,-394471,-425964,-427668,-432611,2,2,2,2
2025-08-21 12:04:14.423,-394492,-425984,-427754,-432633,2,2,2,2
2025-08-21 12:04:14.423,-394512,-425999,-427771,-432393,2,2,2,2
2025-08-21 12:04:14.423,-394561,-426013,-444174,-432412,2,2,2,2
2025-08-21 12:04:14.423,-394538,-426088,-444216,-432487,2,2,2,2
2025-08-21 12:04:14.424,-394597,-426022,-427797,-432419,2,2,2,2
2025-08-21 12:04:14.424,-394521,-426008,-427788,-432408,2,2,2,2
2025-08-21 12:04:14.424,-394523,-426008,-427788,-432410,2,2,2,2
2025-08-21 12:04:14.424,-394595,-426016,-427797,-448836,2,2,2,2
2025-08-21 12:04:14.425,-394604,-426024,-427804,-448845,2,2,2,2
2025-08-21 12:04:14.425,-394535,-426085,-444216,-432489,2,2,2,2
2025-08-21 12:04:14.425,-394594,-426086,-427795,-432419,2,2,2,2
2025-08-21 12:04:14.425,-394527,-426022,-427794,-448800,2,2,2,2
2025-08-21 12:04:14.426,-394602,-426095,-427803,-432487,2,2,2,2
2025-08-21 12:04:14.426,-394598,-426025,-427799,-448836,2,2,2,2
2025-08-21 12:04:14.426,-394538,-426095,-444216,-432490,2,2,2,2
2025-08-21 12:04:14.426,-394598,-426089,-427791,-432417,2,2,2,2
2025-08-21 12:04:14.427,-394504,-442377,-427760,-448773,2,2,2,2
2025-08-21 12:04:14.427,-394484,-425970,-427676,-432626,2,2,2,2
2025-08-21 12:04:14.427,-394472,-425952,-427660,-448962,2,2,2,2
2025-08-21 12:04:14.427,-394391,-425935,-427642,-432593,2,2,2,2
2025-08-21 12:04:14.428,-394448,-425867,-444022,-432522,2,2,2,2
2025-08-21 12:04:14.428,-394390,-409488,-427644,-440720,2,2,2,2
2025-08-21 12:04:14.428,-394432,-425883,-427653,-432601,2,2,2,2
2025-08-21 12:04:14.428,-394476,-425963,-444046,-432610,2,2,2,2
2025-08-21 12:04:14.429,-394481,-425971,-427672,-432618,2,2,2,2
2025-08-21 12:04:14.429,-394498,-425988,-444133,-432634,2,2,2,2
2025-08-21 12:04:14.429,-394498,-425985,-427750,-432631,2,2,2,2
2025-08-21 12:04:14.430,-394490,-425978,-444131,-432624,2,2,2,2
2025-08-21 12:04:14.430,-394479,-425968,-427735,-432611,2,2,2,2
2025-08-21 12:04:14.430,-394470,-425962,-427665,-448985,2,2,2,2
2025-08-21 12:04:14.430,-394466,-409543,-427666,-440724,2,2,2,2
2025-08-21 12:04:14.431,-394469,-425966,-427736,-432540,2,2,2,2
2025-08-21 12:04:14.431,-394472,-425968,-427677,-448996,2,2,2,2
2025-08-21 12:04:14.431,-394482,-425975,-444133,-432620,2,2,2,2
2025-08-21 12:04:14.431,-394490,-425983,-444107,-432629,2,2,2,2
2025-08-21 12:04:14.432,-394503,-425996,-427768,-432639,2,2,2,2
2025-08-21 12:04:14.432,-394505,-425997,-427769,-432385,2,2,2,2
2025-08-21 12:04:14.432,-394523,-442396,-427784,-448784,2,2,2,2
2025-08-21 12:04:14.432,-394599,-426087,-427795,-432411,2,2,2,2
2025-08-21 12:04:14.433,-394537,-426088,-444180,-432415,2,2,2,2
2025-08-21 12:04:14.433,-394602,-442475,-427799,-432483,2,2,2,2
2025-08-21 12:04:14.433,-394615,-426104,-427873,-432432,2,2,2,2
2025-08-21 12:04:14.433,-394635,-426124,-427829,-432515,2,2,2,2
2025-08-21 12:04:14.434,-394644,-426195,-427903,-448908,2,2,2,2
2025-08-21 12:04:14.434,-394713,-426129,-444288,-432524,2,2,2,2
2025-08-21 12:04:14.434,-394713,-426129,-444291,-432523,2,2,2,2
2025-08-21 12:04:14.434,-394648,-442512,-427904,-440710,2,2,2,2
2025-08-21 12:04:14.435,-394656,-426142,-427915,-432593,2,2,2,2
2025-08-21 12:04:14.435,-394650,-426138,-427976,-432525,2,2,2,2
2025-08-21 12:04:14.435,-394701,-426124,-444215,-432511,2,2,2,2
2025-08-21 12:04:14.436,-394625,-442499,-427881,-440691,2,2,2,2
2025-08-21 12:04:14.436,-394617,-426105,-427875,-432428,2,2,2,2
2025-08-21 12:04:14.436,-394567,-426081,-427791,-432410,2,2,2,2
2025-08-21 12:04:14.436,-394525,-426006,-427779,-448789,2,2,2,2
2025-08-21 12:04:14.437,-394510,-425992,-427764,-448771,2,2,2,2
2025-08-21 12:04:14.437,-394510,-425994,-444148,-432388,2,2,2,2
2025-08-21 12:04:14.437,-394518,-426007,-427772,-432400,2,2,2,2
2025-08-21 12:04:14.437,-394519,-426009,-444157,-432400,2,2,2,2
2025-08-21 12:04:14.438,-394515,-426004,-427770,-432397,2,2,2,2
2025-08-21 12:04:14.438,-394514,-425996,-427769,-448780,2,2,2,2
2025-08-21 12:04:14.438,-394514,-425993,-427771,-432393,2,2,2,2
2025-08-21 12:04:14.438,-394505,-442371,-427762,-448769,2,2,2,2
2025-08-21 12:04:14.439,-394498,-409593,-427751,-449017,2,2,2,2
2025-08-21 12:04:14.439,-394483,-425965,-444059,-432622,2,2,2,2
2025-08-21 12:04:14.439,-394459,-425879,-444036,-432536,2,2,2,2
2025-08-21 12:04:14.439,-394377,-425863,-427636,-432583,2,2,2,2
2025-08-21 12:04:14.440,-394439,-425866,-444023,-432523,2,2,2,2
2025-08-21 12:04:14.440,-394378,-409485,-427642,-448909,2,2,2,2
2025-08-21 12:04:14.440,-394393,-425946,-427655,-448921,2,2,2,2
2025-08-21 12:04:14.440,-394470,-425958,-427672,-448998,2,2,2,2
2025-08-21 12:04:14.441,-394465,-425949,-427668,-432605,2,2,2,2
2025-08-21 12:04:14.441,-394475,-425959,-427743,-432614,2,2,2,2
2025-08-21 12:04:14.441,-394490,-425972,-444142,-432627,2,2,2,2
2025-08-21 12:04:14.442,-394491,-425972,-444139,-432626,2,2,2,2
2025-08-21 12:04:14.442,-394486,-425965,-444135,-432618,2,2,2,2
2025-08-21 12:04:14.442,-394487,-409581,-427751,-440806,2,2,2,2
2025-08-21 12:04:14.442,-394490,-425970,-427757,-432622,2,2,2,2
2025-08-21 12:04:14.443,-394499,-425983,-427767,-432636,2,2,2,2
2025-08-21 12:04:14.443,-394512,-426000,-427784,-432394,2,2,2,2
2025-08-21 12:04:14.443,-394514,-426006,-444170,-432396,2,2,2,2
2025-08-21 12:04:14.443,-394524,-426083,-444213,-432404,2,2,2,2
2025-08-21 12:04:14.444,-394600,-442444,-427873,-440603,2,2,2,2
2025-08-21 12:04:14.444,-394597,-426089,-427806,-432408,2,2,2,2
2025-08-21 12:04:14.444,-394604,-426091,-427805,-432412,2,2,2,2
2025-08-21 12:04:14.444,-394552,-426101,-444264,-432487,2,2,2,2
2025-08-21 12:04:14.445,-394616,-426031,-427879,-448804,2,2,2,2
2025-08-21 12:04:14.445,-394612,-442475,-427808,-440673,2,2,2,2
2025-08-21 12:04:14.445,-394614,-426092,-427808,-432418,2,2,2,2
2025-08-21 12:04:14.445,-394596,-426012,-427790,-432399,2,2,2,2
2025-08-21 12:04:14.446,-394524,-426005,-427783,-432391,2,2,2,2
2025-08-21 12:04:14.446,-394528,-426008,-427784,-448780,2,2,2,2
2025-08-21 12:04:14.446,-394531,-426012,-444173,-432402,2,2,2,2
2025-08-21 12:04:14.446,-394594,-426007,-427786,-432403,2,2,2,2
2025-08-21 12:04:14.447,-394526,-442389,-427786,-448787,2,2,2,2
2025-08-21 12:04:14.447,-394515,-425995,-427777,-432390,2,2,2,2
2025-08-21 12:04:14.447,-394510,-425988,-427772,-448770,2,2,2,2
2025-08-21 12:04:14.447,-394501,-425978,-427763,-432627,2,2,2,2
2025-08-21 12:04:14.448,-394507,-425984,-444153,-432634,2,2,2,2
2025-08-21 12:04:14.448,-394512,-442375,-427776,-449024,2,2,2,2
2025-08-21 12:04:14.448,-394554,-426003,-444175,-432396,2,2,2,2
2025-08-21 12:04:14.448,-394536,-426015,-444185,-432405,2,2,2,2
2025-08-21 12:04:14.449,-394609,-426025,-427873,-448796,2,2,2,2
2025-08-21 12:04:14.449,-394559,-426103,-444239,-432491,2,2,2,2
2025-08-21 12:04:14.449,-394635,-442498,-427900,-448891,2,2,2,2
2025-08-21 12:04:14.449,-394678,-426125,-427905,-432579,2,2,2,2
2025-08-21 12:04:14.450,-394710,-426122,-444288,-432518,2,2,2,2
2025-08-21 12:04:14.450,-394640,-426178,-427900,-432578,2,2,2,2
2025-08-21 12:04:14.450,-394708,-426115,-427837,-432516,2,2,2,2
2025-08-21 12:04:14.451,-394645,-442566,-427908,-448906,2,2,2,2
2025-08-21 12:04:14.451,-394685,-426123,-444299,-432532,2,2,2,2
2025-08-21 12:04:14.451,-394741,-426144,-427931,-432616,2,2,2,2
2025-08-21 12:04:14.452,-394500,-426223,-428010,-432631,2,2,2,2
2025-08-21 12:04:14.452,-394509,-426234,-428019,-432640,2,2,2,2
2025-08-21 12:04:14.452,-394604,-426013,-427796,-449053,2,2,2,2
2025-08-21 12:04:14.452,-394689,-426100,-444233,-432753,2,2,2,2
2025-08-21 12:04:14.453,-394606,-426085,-427804,-432678,2,2,2,2
2025-08-21 12:04:14.453,-394540,-426081,-427799,-432739,2,2,2,2
2025-08-21 12:04:14.454,-394609,-426024,-427808,-449093,2,2,2,2
2025-08-21 12:04:14.454,-394553,-426096,-444231,-432749,2,2,2,2
2025-08-21 12:04:14.454,-394619,-442484,-427884,-440946,2,2,2,2
2025-08-21 12:04:14.454,-394609,-426088,-427873,-432682,2,2,2,2
2025-08-21 12:04:14.455,-394602,-426015,-427799,-432740,2,2,2,2
2025-08-21 12:04:14.455,-394612,-426022,-427873,-449101,2,2,2,2
2025-08-21 12:04:14.455,-394548,-426082,-444190,-432748,2,2,2,2
2025-08-21 12:04:14.455,-394594,-442381,-427789,-440853,2,2,2,2
2025-08-21 12:04:14.456,-394512,-442618,-428026,-440836,2,2,2,2
2025-08-21 12:04:14.456,-394502,-426223,-428020,-432635,2,2,2,2
2025-08-21 12:04:14.456,-394513,-426233,-444416,-432646,2,2,2,2
2025-08-21 12:04:14.456,-394525,-425989,-444169,-432659,2,2,2,2
2025-08-21 12:04:14.457,-394526,-425994,-427789,-432664,2,2,2,2
2025-08-21 12:04:14.457,-394542,-426006,-444192,-432743,2,2,2,2
2025-08-21 12:04:14.457,-394628,-442446,-427894,-449151,2,2,2,2
2025-08-21 12:04:14.457,-394633,-426029,-427895,-449151,2,2,2,2
2025-08-21 12:04:14.458,-394631,-426093,-427829,-432764,2,2,2,2
2025-08-21 12:04:14.458,-394628,-426029,-427890,-449082,2,2,2,2
2025-08-21 12:04:14.458,-394622,-426088,-427888,-432696,2,2,2,2
2025-08-21 12:04:14.458,-394614,-442403,-427882,-449137,2,2,2,2
2025-08-21 12:04:14.459,-394606,-426009,-427808,-449126,2,2,2,2
2025-08-21 12:04:14.459,-394524,-425989,-427782,-432658,2,2,2,2
2025-08-21 12:04:14.459,-394506,-426227,-428023,-432643,2,2,2,2
2025-08-21 12:04:14.460,-394516,-426238,-444416,-432656,2,2,2,2
2025-08-21 12:04:14.460,-394516,-442623,-427781,-449044,2,2,2,2
2025-08-21 12:04:14.460,-394601,-426002,-427805,-449097,2,2,2,2
2025-08-21 12:04:14.461,-394723,-426191,-427930,-449249,2,2,2,2
2025-08-21 12:04:14.461,-394741,-426210,-444393,-432883,2,2,2,2
2025-08-21 12:04:14.461,-394746,-426219,-428016,-432891,2,2,2,2
2025-08-21 12:04:14.461,-394753,-426223,-444404,-432894,2,2,2,2
2025-08-21 12:04:14.462,-394760,-426231,-444410,-432646,2,2,2,2
2025-08-21 12:04:14.462,-394747,-442611,-428023,-441087,2,2,2,2
2025-08-21 12:04:14.462,-394753,-426233,-428027,-432642,2,2,2,2
2025-08-21 12:04:14.463,-394758,-442621,-428028,-449028,2,2,2,2
2025-08-21 12:04:14.463,-394751,-426232,-428022,-449277,2,2,2,2
2025-08-21 12:04:14.463,-394750,-426227,-444401,-432890,2,2,2,2
2025-08-21 12:04:14.463,-394744,-426218,-444393,-432881,2,2,2,2
2025-08-21 12:04:14.464,-394744,-426215,-428010,-432881,2,2,2,2
2025-08-21 12:04:14.464,-394739,-426211,-428006,-432877,2,2,2,2
2025-08-21 12:04:14.464,-394729,-426138,-427996,-432868,2,2,2,2
2025-08-21 12:04:14.464,-394723,-426196,-427922,-449211,2,2,2,2
2025-08-21 12:04:14.465,-394729,-426142,-444344,-432865,2,2,2,2
2025-08-21 12:04:14.465,-394732,-442559,-427932,-440992,2,2,2,2
2025-08-21 12:04:14.465,-394703,-426210,-427933,-432868,2,2,2,2
2025-08-21 12:04:14.465,-394744,-426219,-428003,-432874,2,2,2,2
2025-08-21 12:04:14.466,-394754,-426220,-428009,-432878,2,2,2,2
2025-08-21 12:04:14.466,-394771,-426241,-444414,-432894,2,2,2,2
2025-08-21 12:04:14.466,-394857,-426264,-428054,-432661,2,2,2,2
2025-08-21 12:04:14.467,-394871,-426340,-444515,-432669,2,2,2,2
2025-08-21 12:04:14.467,-394866,-426340,-428065,-432665,2,2,2,2
2025-08-21 12:04:14.467,-394862,-426266,-428060,-449044,2,2,2,2
2025-08-21 12:04:14.467,-394810,-426342,-444487,-432737,2,2,2,2
2025-08-21 12:04:14.468,-394884,-442737,-428145,-449127,2,2,2,2
2025-08-21 12:04:14.468,-394891,-426291,-428151,-449134,2,2,2,2
2025-08-21 12:04:14.468,-394886,-426353,-428084,-432748,2,2,2,2
2025-08-21 12:04:14.468,-394867,-426337,-428132,-432667,2,2,2,2
2025-08-21 12:04:14.469,-394862,-426267,-428061,-432665,2,2,2,2
2025-08-21 12:04:14.469,-394790,-426257,-428052,-432657,2,2,2,2
2025-08-21 12:04:14.469,-394852,-442639,-428047,-449037,2,2,2,2
2025-08-21 12:04:14.469,-394768,-426236,-444414,-432891,2,2,2,2
2025-08-21 12:04:14.470,-394760,-426226,-428022,-449232,2,2,2,2
2025-08-21 12:04:14.470,-394754,-426215,-428018,-449258,2,2,2,2
2025-08-21 12:04:14.470,-394757,-426216,-444411,-432876,2,2,2,2
2025-08-21 12:04:14.470,-394755,-426214,-428024,-449259,2,2,2,2
2025-08-21 12:04:14.471,-394753,-426213,-428023,-449257,2,2,2,2
2025-08-21 12:04:14.471,-394741,-426136,-444387,-432794,2,2,2,2
2025-08-21 12:04:14.471,-394639,-426097,-427904,-432698,2,2,2,2
2025-08-21 12:04:14.472,-394693,-426087,-427829,-432755,2,2,2,2
2025-08-21 12:04:14.472,-394620,-442397,-427883,-449132,2,2,2,2
2025-08-21 12:04:14.472,-394557,-426010,-444265,-432746,2,2,2,2
2025-08-21 12:04:14.472,-394619,-442392,-427878,-440934,2,2,2,2
2025-08-21 12:04:14.473,-394619,-442395,-427878,-440934,2,2,2,2
2025-08-21 12:04:14.473,-394617,-426010,-427876,-432677,2,2,2,2
2025-08-21 12:04:14.473,-394608,-426000,-427805,-432666,2,2,2,2
2025-08-21 12:04:14.473,-394595,-425987,-427795,-449037,2,2,2,2
2025-08-21 12:04:14.474,-394516,-426226,-444168,-432637,2,2,2,2
2025-08-21 12:04:14.474,-394519,-426232,-427783,-432631,2,2,2,2
2025-08-21 12:04:14.474,-394516,-426229,-427780,-432631,2,2,2,2
2025-08-21 12:04:14.475,-394517,-426230,-427782,-432631,2,2,2,2
2025-08-21 12:04:14.475,-394505,-426220,-428023,-448972,2,2,2,2
2025-08-21 12:04:14.475,-394741,-426137,-444355,-432538,2,2,2,2
2025-08-21 12:04:14.475,-394724,-442568,-427921,-448903,2,2,2,2
2025-08-21 12:04:14.476,-394656,-426116,-427918,-432582,2,2,2,2
2025-08-21 12:04:14.476,-394728,-426122,-427987,-432526,2,2,2,2
2025-08-21 12:04:14.476,-394729,-426190,-427932,-448950,2,2,2,2
2025-08-21 12:04:14.476,-394743,-426133,-444396,-432543,2,2,2,2
2025-08-21 12:04:14.477,-394743,-426134,-444368,-432544,2,2,2,2
2025-08-21 12:04:14.477,-394737,-442546,-428010,-440729,2,2,2,2
2025-08-21 12:04:14.477,-394738,-426135,-428011,-432606,2,2,2,2
2025-08-21 12:04:14.478,-394727,-426186,-427929,-448946,2,2,2,2
2025-08-21 12:04:14.478,-394731,-426125,-444347,-432535,2,2,2,2
2025-08-21 12:04:14.478,-394654,-442499,-427922,-440716,2,2,2,2
2025-08-21 12:04:14.478,-394710,-426109,-444295,-432517,2,2,2,2
2025-08-21 12:04:14.479,-394682,-426111,-444296,-432519,2,2,2,2
2025-08-21 12:04:14.479,-394644,-426038,-427903,-448829,2,2,2,2
2025-08-21 12:04:14.479,-394643,-426099,-427839,-432510,2,2,2,2
2025-08-21 12:04:14.480,-394649,-442491,-427912,-448906,2,2,2,2
2025-08-21 12:04:14.480,-394684,-426112,-427916,-432591,2,2,2,2
2025-08-21 12:04:14.480,-394723,-426116,-444306,-432533,2,2,2,2
2025-08-21 12:04:14.480,-394736,-426127,-427933,-432607,2,2,2,2
2025-08-21 12:04:14.481,-394741,-426129,-428003,-432611,2,2,2,2
2025-08-21 12:04:14.481,-394745,-442549,-428005,-440808,2,2,2,2
2025-08-21 12:04:14.481,-394498,-442592,-428015,-449009,2,2,2,2
2025-08-21 12:04:14.481,-394751,-426144,-444402,-432627,2,2,2,2
2025-08-21 12:04:14.482,-394739,-426193,-428011,-432614,2,2,2,2
2025-08-21 12:04:14.482,-394729,-426115,-427933,-432600,2,2,2,2
2025-08-21 12:04:14.482,-394651,-426039,-427919,-448908,2,2,2,2
2025-08-21 12:04:14.483,-394631,-426084,-444287,-432504,2,2,2,2
2025-08-21 12:04:14.483,-394614,-426004,-427819,-432486,2,2,2,2
2025-08-21 12:04:14.484,-394626,-426011,-427825,-432498,2,2,2,2
2025-08-21 12:04:14.484,-394639,-426021,-427897,-448890,2,2,2,2
2025-08-21 12:04:14.484,-394637,-426021,-427891,-448884,2,2,2,2
2025-08-21 12:04:14.484,-394642,-442439,-427896,-440692,2,2,2,2
2025-08-21 12:04:14.485,-394638,-442441,-427897,-440694,2,2,2,2
2025-08-21 12:04:14.485,-394635,-426089,-427897,-432434,2,2,2,2
2025-08-21 12:04:14.485,-394638,-426091,-427837,-432501,2,2,2,2
2025-08-21 12:04:14.485,-394706,-426094,-444291,-432504,2,2,2,2
2025-08-21 12:04:14.486,-394715,-426104,-444305,-432514,2,2,2,2
2025-08-21 12:04:14.486,-394652,-442489,-427925,-440708,2,2,2,2
2025-08-21 12:04:14.486,-394627,-426082,-427897,-432431,2,2,2,2
2025-08-21 12:04:14.486,-394607,-426000,-427812,-432410,2,2,2,2
2025-08-21 12:04:14.487,-394600,-425997,-427875,-448822,2,2,2,2
2025-08-21 12:04:14.487,-394594,-425991,-427874,-448820,2,2,2,2
2025-08-21 12:04:14.487,-394524,-425982,-444218,-432398,2,2,2,2
2025-08-21 12:04:14.487,-394563,-425991,-427874,-432407,2,2,2,2
2025-08-21 12:04:14.488,-394606,-426001,-427882,-432418,2,2,2,2
2025-08-21 12:04:14.488,-394575,-425997,-444264,-432484,2,2,2,2
2025-08-21 12:04:14.488,-394601,-425990,-427808,-448828,2,2,2,2
2025-08-21 12:04:14.488,-394533,-425989,-444189,-432411,2,2,2,2
2025-08-21 12:04:14.489,-394538,-425993,-444196,-432413,2,2,2,2
2025-08-21 12:04:14.489,-394602,-442378,-427877,-448794,2,2,2,2
2025-08-21 12:04:14.489,-394569,-425992,-427873,-432406,2,2,2,2
2025-08-21 12:04:14.489,-394526,-425982,-427802,-448779,2,2,2,2
2025-08-21 12:04:14.490,-394514,-425971,-427789,-448769,2,2,2,2
2025-08-21 12:04:14.490,-394510,-425970,-444170,-432639,2,2,2,2
2025-08-21 12:04:14.490,-394527,-442369,-427800,-440591,2,2,2,2
2025-08-21 12:04:14.490,-394539,-425998,-444261,-432412,2,2,2,2
2025-08-21 12:04:14.491,-394536,-425996,-444258,-432413,2,2,2,2
2025-08-21 12:04:14.491,-394622,-426009,-427887,-432430,2,2,2,2
2025-08-21 12:04:14.491,-394622,-426010,-427823,-432491,2,2,2,2
2025-08-21 12:04:14.492,-394624,-442400,-427892,-448878,2,2,2,2
2025-08-21 12:04:14.492,-394628,-426088,-444284,-432502,2,2,2,2
2025-08-21 12:04:14.492,-394624,-426084,-427898,-432429,2,2,2,2
2025-08-21 12:04:14.493,-394705,-426096,-444358,-432507,2,2,2,2
2025-08-21 12:04:14.493,-394741,-426130,-428007,-432542,2,2,2,2
2025-08-21 12:04:14.493,-394503,-426209,-428023,-449006,2,2,2,2
2025-08-21 12:04:14.493,-394498,-426137,-444402,-432617,2,2,2,2
2025-08-21 12:04:14.494,-394721,-426110,-427924,-432590,2,2,2,2
2025-08-21 12:04:14.494,-394707,-426099,-427976,-432515,2,2,2,2
2025-08-21 12:04:14.494,-394644,-426034,-427908,-448902,2,2,2,2
2025-08-21 12:04:14.495,-394654,-426044,-427917,-448909,2,2,2,2
2025-08-21 12:04:14.495,-394715,-426108,-444303,-432526,2,2,2,2
2025-08-21 12:04:14.495,-394724,-442500,-427928,-440726,2,2,2,2
2025-08-21 12:04:14.495,-394692,-426118,-427929,-432599,2,2,2,2
2025-08-21 12:04:14.496,-394651,-426109,-427984,-432524,2,2,2,2
2025-08-21 12:04:14.496,-394646,-426041,-427914,-448902,2,2,2,2
2025-08-21 12:04:14.496,-394728,-426119,-444312,-432536,2,2,2,2
2025-08-21 12:04:14.496,-394741,-442546,-428004,-440801,2,2,2,2
2025-08-21 12:04:14.497,-394738,-442511,-427936,-440735,2,2,2,2
2025-08-21 12:04:14.497,-394722,-426113,-427986,-432525,2,2,2,2
2025-08-21 12:04:14.497,-394723,-426179,-427920,-448910,2,2,2,2
2025-08-21 12:04:14.497,-394742,-426134,-444357,-432609,2,2,2,2
2025-08-21 12:04:14.498,-394752,-426209,-444401,-432615,2,2,2,2
2025-08-21 12:04:14.498,-394499,-442604,-428027,-440813,2,2,2,2
2025-08-21 12:04:14.498,-394506,-426230,-428030,-432626,2,2,2,2
2025-08-21 12:04:14.498,-394507,-426230,-428029,-449013,2,2,2,2
2025-08-21 12:04:14.499,-394507,-426224,-428031,-449017,2,2,2,2
2025-08-21 12:04:14.499,-394513,-426234,-444169,-432642,2,2,2,2
2025-08-21 12:04:14.499,-394515,-426239,-444174,-432647,2,2,2,2
2025-08-21 12:04:14.499,-394512,-426235,-427783,-432643,2,2,2,2
2025-08-21 12:04:14.500,-394497,-426220,-428024,-432631,2,2,2,2
2025-08-21 12:04:14.500,-394726,-426130,-427996,-432542,2,2,2,2
2025-08-21 12:04:14.500,-394725,-426132,-444349,-432541,2,2,2,2
2025-08-21 12:04:14.501,-394742,-442563,-428018,-440813,2,2,2,2
2025-08-21 12:04:14.501,-394745,-426216,-428025,-432627,2,2,2,2
2025-08-21 12:04:14.501,-394703,-426210,-444401,-432617,2,2,2,2
2025-08-21 12:04:14.502,-394508,-426238,-427790,-449032,2,2,2,2
2025-08-21 12:04:14.502,-394522,-425997,-444190,-432667,2,2,2,2
2025-08-21 12:04:14.502,-394595,-442421,-427881,-449125,2,2,2,2
2025-08-21 12:04:14.502,-394573,-426014,-444274,-432750,2,2,2,2
2025-08-21 12:04:14.503,-394625,-426101,-427976,-432766,2,2,2,2
2025-08-21 12:04:14.503,-394635,-426047,-427922,-449221,2,2,2,2
2025-08-21 12:04:14.503,-394633,-426110,-427919,-432838,2,2,2,2
2025-08-21 12:04:14.503,-394632,-442496,-427920,-449163,2,2,2,2
2025-08-21 12:04:14.504,-394679,-426129,-428001,-432862,2,2,2,2
2025-08-21 12:04:14.504,-394734,-426214,-428022,-432884,2,2,2,2
2025-08-21 12:04:14.504,-394746,-442607,-428032,-441084,2,2,2,2
2025-08-21 12:04:14.505,-394753,-426231,-444423,-432645,2,2,2,2
2025-08-21 12:04:14.505,-394747,-442574,-428033,-449279,2,2,2,2
2025-08-21 12:04:14.505,-394751,-426228,-428039,-449029,2,2,2,2
2025-08-21 12:04:14.505,-394748,-426222,-428032,-449025,2,2,2,2
2025-08-21 12:04:14.506,-394740,-426211,-428019,-449271,2,2,2,2
2025-08-21 12:04:14.506,-394752,-426219,-428028,-432895,2,2,2,2
2025-08-21 12:04:14.506,-394765,-426234,-428045,-432653,2,2,2,2
2025-08-21 12:04:14.506,-394780,-426247,-428062,-432670,2,2,2,2
2025-08-21 12:04:14.507,-394791,-426259,-444522,-432747,2,2,2,2
2025-08-21 12:04:14.507,-394857,-442645,-428138,-440939,2,2,2,2
2025-08-21 12:04:14.507,-394778,-426255,-428063,-432672,2,2,2,2
2025-08-21 12:04:14.508,-394768,-442631,-428053,-449048,2,2,2,2
2025-08-21 12:04:14.508,-394758,-426236,-428039,-449040,2,2,2,2
2025-08-21 12:04:14.508,-394744,-426221,-444408,-432642,2,2,2,2
2025-08-21 12:04:14.508,-394732,-426211,-444364,-432888,2,2,2,2
2025-08-21 12:04:14.509,-394740,-442566,-428013,-441081,2,2,2,2
2025-08-21 12:04:14.509,-394753,-426231,-428028,-432644,2,2,2,2
2025-08-21 12:04:14.509,-394774,-426255,-428048,-432667,2,2,2,2
2025-08-21 12:04:14.509,-394775,-426254,-428048,-449081,2,2,2,2
2025-08-21 12:04:14.510,-394761,-426235,-444418,-432650,2,2,2,2
2025-08-21 12:04:14.510,-394747,-442566,-428014,-441081,2,2,2,2
2025-08-21 12:04:14.510,-394737,-426141,-428005,-432878,2,2,2,2
2025-08-21 12:04:14.510,-394728,-426200,-427933,-449220,2,2,2,2
2025-08-21 12:04:14.511,-394656,-426188,-427927,-449242,2,2,2,2
2025-08-21 12:04:14.511,-394723,-442516,-427934,-440991,2,2,2,2
2025-08-21 12:04:14.511,-394699,-426141,-428011,-432868,2,2,2,2
2025-08-21 12:04:14.512,-394738,-426211,-428018,-432875,2,2,2,2
2025-08-21 12:04:14.512,-394745,-426217,-428026,-432882,2,2,2,2
2025-08-21 12:04:14.512,-394742,-426215,-428024,-449269,2,2,2,2
2025-08-21 12:04:14.512,-394735,-426210,-428024,-432882,2,2,2,2
2025-08-21 12:04:14.513,-394729,-442559,-428023,-441070,2,2,2,2
2025-08-21 12:04:14.513,-394692,-426141,-428017,-432868,2,2,2,2
2025-08-21 12:04:14.513,-394648,-426130,-428010,-432795,2,2,2,2
2025-08-21 12:04:14.513,-394636,-426179,-427933,-432845,2,2,2,2
2025-08-21 12:04:14.514,-394634,-426047,-427929,-432840,2,2,2,2
2025-08-21 12:04:14.514,-394550,-426088,-444356,-432754,2,2,2,2
2025-08-21 12:04:14.514,-394524,-442418,-427887,-449050,2,2,2,2
2025-08-21 12:04:14.515,-394519,-425998,-427824,-432664,2,2,2,2
2025-08-21 12:04:14.515,-394517,-425996,-427885,-449049,2,2,2,2
2025-08-21 12:04:14.515,-394519,-425994,-444236,-432669,2,2,2,2
2025-08-21 12:04:14.515,-394524,-425993,-427886,-449121,2,2,2,2
2025-08-21 12:04:14.516,-394599,-426000,-427896,-449128,2,2,2,2
2025-08-21 12:04:14.516,-394546,-426011,-444290,-432755,2,2,2,2
2025-08-21 12:04:14.516,-394616,-426019,-427909,-449143,2,2,2,2
2025-08-21 12:04:14.516,-394694,-426100,-427987,-432772,2,2,2,2
2025-08-21 12:04:14.517,-394706,-426112,-428002,-432785,2,2,2,2
2025-08-21 12:04:14.517,-394647,-442567,-428006,-449172,2,2,2,2
2025-08-21 12:04:14.517,-394679,-426121,-444392,-432790,2,2,2,2
2025-08-21 12:04:14.517,-394724,-442517,-428023,-441058,2,2,2,2
2025-08-21 12:04:14.518,-394655,-442513,-428017,-440991,2,2,2,2
2025-08-21 12:04:14.518,-394643,-426118,-428001,-432854,2,2,2,2
2025-08-21 12:04:14.518,-394634,-442491,-427931,-449165,2,2,2,2
2025-08-21 12:04:14.518,-394697,-426107,-444314,-432780,2,2,2,2
2025-08-21 12:04:14.519,-394692,-426099,-444303,-432772,2,2,2,2
2025-08-21 12:04:14.519,-394644,-442496,-427935,-440977,2,2,2,2
2025-08-21 12:04:14.519,-394730,-426133,-428018,-432868,2,2,2,2
2025-08-21 12:04:14.520,-394757,-426225,-428046,-432892,2,2,2,2
2025-08-21 12:04:14.520,-394786,-426256,-444525,-432667,2,2,2,2
2025-08-21 12:04:14.520,-394772,-426241,-444478,-432655,2,2,2,2
2025-08-21 12:04:14.520,-394737,-426143,-428025,-432876,2,2,2,2
2025-08-21 12:04:14.521,-394656,-426127,-428009,-432863,2,2,2,2
2025-08-21 12:04:14.521,-394654,-426125,-428007,-432797,2,2,2,2
2025-08-21 12:04:14.521,-394726,-426137,-428019,-432872,2,2,2,2
2025-08-21 12:04:14.521,-394725,-442522,-428019,-441064,2,2,2,2
2025-08-21 12:04:14.522,-394729,-426140,-444408,-432874,2,2,2,2
2025-08-21 12:04:14.522,-394729,-426138,-428022,-432873,2,2,2,2
2025-08-21 12:04:14.522,-394697,-426142,-428022,-432877,2,2,2,2
2025-08-21 12:04:14.522,-394724,-426198,-428012,-449220,2,2,2,2
2025-08-21 12:04:14.523,-394652,-426187,-428002,-449208,2,2,2,2
2025-08-21 12:04:14.523,-394710,-426118,-444352,-432785,2,2,2,2
2025-08-21 12:04:14.523,-394708,-426115,-444384,-432786,2,2,2,2
2025-08-21 12:04:14.523,-394627,-426104,-444308,-432772,2,2,2,2
2025-08-21 12:04:14.524,-394621,-426102,-427986,-432770,2,2,2,2
2025-08-21 12:04:14.524,-394615,-426033,-427913,-449149,2,2,2,2
2025-08-21 12:04:14.524,-394619,-426032,-427914,-449088,2,2,2,2
2025-08-21 12:04:14.524,-394628,-442483,-427916,-449156,2,2,2,2
2025-08-21 12:04:14.525,-394629,-442482,-427919,-449158,2,2,2,2
2025-08-21 12:04:14.525,-394623,-426093,-427915,-432703,2,2,2,2
2025-08-21 12:04:14.525,-394555,-426088,-444294,-432763,2,2,2,2
2025-08-21 12:04:14.525,-394549,-426085,-444284,-432757,2,2,2,2
2025-08-21 12:04:14.526,-394548,-426086,-444283,-432759,2,2,2,2
2025-08-21 12:04:14.526,-394554,-426092,-427969,-432771,2,2,2,2
2025-08-21 12:04:14.526,-394619,-442413,-427904,-449155,2,2,2,2
2025-08-21 12:04:14.527,-394597,-426007,-427879,-449071,2,2,2,2
2025-08-21 12:04:14.527,-394525,-425998,-444189,-432742,2,2,2,2
2025-08-21 12:04:14.527,-394550,-425992,-444183,-432670,2,2,2,2
2025-08-21 12:04:14.528,-394561,-426002,-427879,-432680,2,2,2,2
2025-08-21 12:04:14.528,-394525,-426006,-444265,-432744,2,2,2,2
2025-08-21 12:04:14.528,-394510,-425989,-427797,-432664,2,2,2,2
2025-08-21 12:04:14.529,-394500,-426237,-427789,-432659,2,2,2,2
2025-08-21 12:04:14.529,-394735,-426212,-428023,-432637,2,2,2,2
2025-08-21 12:04:14.529,-394716,-426127,-444390,-432618,2,2,2,2
2025-08-21 12:04:14.529,-394637,-442494,-427926,-440725,2,2,2,2
2025-08-21 12:04:14.530,-394624,-426032,-427913,-432579,2,2,2,2
2025-08-21 12:04:14.530,-394619,-426090,-427907,-432444,2,2,2,2
2025-08-21 12:04:14.530,-394602,-426012,-427829,-432494,2,2,2,2
2025-08-21 12:04:14.530,-394533,-426009,-444277,-432490,2,2,2,2
2025-08-21 12:04:14.531,-394548,-426091,-444295,-432505,2,2,2,2
2025-08-21 12:04:14.531,-394622,-442480,-427917,-432512,2,2,2,2
2025-08-21 12:04:14.531,-394624,-426094,-427911,-432577,2,2,2,2
2025-08-21 12:04:14.531,-394628,-426098,-427978,-432519,2,2,2,2
2025-08-21 12:04:14.532,-394620,-426029,-427909,-448896,2,2,2,2
2025-08-21 12:04:14.532,-394621,-426037,-427915,-448900,2,2,2,2
2025-08-21 12:04:14.532,-394694,-426107,-444337,-432526,2,2,2,2
2025-08-21 12:04:14.532,-394635,-426116,-427927,-432599,2,2,2,2
2025-08-21 12:04:14.533,-394694,-426107,-427990,-432530,2,2,2,2
2025-08-21 12:04:14.533,-394619,-426098,-427980,-432523,2,2,2,2
2025-08-21 12:04:14.533,-394602,-426015,-427896,-448889,2,2,2,2
2025-08-21 12:04:14.533,-394538,-426016,-444215,-432504,2,2,2,2
2025-08-21 12:04:14.534,-394547,-426088,-444289,-432510,2,2,2,2
2025-08-21 12:04:14.534,-394613,-442445,-427907,-448899,2,2,2,2
2025-08-21 12:04:14.534,-394612,-426095,-427903,-432582,2,2,2,2
2025-08-21 12:04:14.534,-394602,-426022,-427893,-448895,2,2,2,2
2025-08-21 12:04:14.535,-394597,-426014,-427889,-448891,2,2,2,2
2025-08-21 12:04:14.535,-394541,-426084,-444282,-432515,2,2,2,2
2025-08-21 12:04:14.535,-394608,-442441,-427904,-440713,2,2,2,2
2025-08-21 12:04:14.535,-394546,-426090,-444287,-432520,2,2,2,2
2025-08-21 12:04:14.536,-394614,-426090,-444287,-432518,2,2,2,2
2025-08-21 12:04:14.536,-394689,-426098,-444297,-432524,2,2,2,2
2025-08-21 12:04:14.536,-394618,-442441,-427907,-448900,2,2,2,2
2025-08-21 12:04:14.537,-394620,-442442,-427913,-448901,2,2,2,2
2025-08-21 12:04:14.537,-394623,-426094,-427920,-432585,2,2,2,2
2025-08-21 12:04:14.537,-394610,-426085,-427974,-432513,2,2,2,2
2025-08-21 12:04:14.537,-394524,-425998,-444274,-432490,2,2,2,2
2025-08-21 12:04:14.538,-394520,-425991,-427886,-432422,2,2,2,2
2025-08-21 12:04:14.538,-394523,-425996,-427826,-432490,2,2,2,2
2025-08-21 12:04:14.538,-394552,-425993,-427880,-432420,2,2,2,2
2025-08-21 12:04:14.539,-394511,-425984,-427804,-432411,2,2,2,2
2025-08-21 12:04:14.539,-394518,-425992,-427875,-432418,2,2,2,2
2025-08-21 12:04:14.539,-394566,-426012,-444276,-432500,2,2,2,2
2025-08-21 12:04:14.540,-394607,-426022,-427901,-448894,2,2,2,2
2025-08-21 12:04:14.540,-394534,-426015,-444277,-432502,2,2,2,2
2025-08-21 12:04:14.540,-394526,-426001,-427824,-432495,2,2,2,2
2025-08-21 12:04:14.541,-394523,-425993,-427820,-432490,2,2,2,2
2025-08-21 12:04:14.541,-394526,-425995,-427885,-448880,2,2,2,2
2025-08-21 12:04:14.541,-394604,-426010,-427899,-448895,2,2,2,2
2025-08-21 12:04:14.541,-394609,-426083,-427905,-432580,2,2,2,2
2025-08-21 12:04:14.542,-394627,-442448,-427918,-440723,2,2,2,2
2025-08-21 12:04:14.542,-394640,-426109,-427929,-432608,2,2,2,2
2025-08-21 12:04:14.542,-394652,-426123,-428002,-432617,2,2,2,2
2025-08-21 12:04:14.542,-394722,-426129,-444360,-432622,2,2,2,2
2025-08-21 12:04:14.543,-394731,-426142,-444404,-432632,2,2,2,2
2025-08-21 12:04:14.543,-394739,-442597,-428027,-440836,2,2,2,2
2025-08-21 12:04:14.543,-394748,-442609,-427787,-449042,2,2,2,2
2025-08-21 12:04:14.543,-394505,-426237,-427802,-449087,2,2,2,2
2025-08-21 12:04:14.544,-394508,-425986,-427798,-449090,2,2,2,2
2025-08-21 12:04:14.544,-394520,-426000,-444192,-432750,2,2,2,2
2025-08-21 12:04:14.544,-394524,-426003,-444231,-432756,2,2,2,2
2025-08-21 12:04:14.544,-394558,-426004,-427880,-432696,2,2,2,2
2025-08-21 12:04:14.545,-394594,-426006,-427882,-432700,2,2,2,2
2025-08-21 12:04:14.545,-394517,-425995,-427805,-432751,2,2,2,2
2025-08-21 12:04:14.545,-394498,-442614,-427781,-440856,2,2,2,2
2025-08-21 12:04:14.546,-394497,-442613,-427777,-440857,2,2,2,2
2025-08-21 12:04:14.546,-394506,-426233,-427782,-432668,2,2,2,2
2025-08-21 12:04:14.546,-394510,-426235,-427786,-432671,2,2,2,2
2025-08-21 12:04:14.546,-394508,-426231,-427784,-449050,2,2,2,2
2025-08-21 12:04:14.547,-394500,-426222,-428025,-449039,2,2,2,2
2025-08-21 12:04:14.547,-394741,-426214,-444364,-432643,2,2,2,2
2025-08-21 12:04:14.547,-394726,-426134,-427998,-432632,2,2,2,2
2025-08-21 12:04:14.547,-394644,-426114,-427979,-432617,2,2,2,2
2025-08-21 12:04:14.548,-394638,-426108,-427974,-432611,2,2,2,2
2025-08-21 12:04:14.548,-394640,-426045,-427917,-432614,2,2,2,2
2025-08-21 12:04:14.548,-394655,-442570,-427932,-449008,2,2,2,2
2025-08-21 12:04:14.549,-394652,-442570,-427932,-449007,2,2,2,2
2025-08-21 12:04:14.549,-394678,-426114,-444312,-432616,2,2,2,2
2025-08-21 12:04:14.549,-394704,-426118,-444381,-432619,2,2,2,2
2025-08-21 12:04:14.550,-394693,-426109,-444371,-432609,2,2,2,2
2025-08-21 12:04:14.550,-394622,-426108,-427984,-432541,2,2,2,2
2025-08-21 12:04:14.550,-394620,-426037,-427914,-448921,2,2,2,2
2025-08-21 12:04:14.551,-394613,-426082,-427897,-432588,2,2,2,2
2025-08-21 12:04:14.551,-394542,-426009,-427828,-432521,2,2,2,2
2025-08-21 12:04:14.551,-394620,-426027,-427904,-448948,2,2,2,2
2025-08-21 12:04:14.552,-394624,-426030,-427906,-448953,2,2,2,2
2025-08-21 12:04:14.552,-394558,-426098,-444292,-432536,2,2,2,2
2025-08-21 12:04:14.552,-394637,-442499,-427928,-440808,2,2,2,2
2025-08-21 12:04:14.552,-394644,-426122,-427999,-432620,2,2,2,2
2025-08-21 12:04:14.553,-394646,-426127,-428002,-432624,2,2,2,2
2025-08-21 12:04:14.553,-394651,-426195,-428004,-449011,2,2,2,2
2025-08-21 12:04:14.553,-394727,-426139,-444396,-432635,2,2,2,2
2025-08-21 12:04:14.553,-394731,-442556,-428018,-440828,2,2,2,2
2025-08-21 12:04:14.554,-394724,-426132,-428013,-432631,2,2,2,2
2025-08-21 12:04:14.554,-394723,-426132,-428015,-432633,2,2,2,2
2025-08-21 12:04:14.554,-394733,-426209,-428024,-432645,2,2,2,2
2025-08-21 12:04:14.554,-394746,-426219,-444416,-432655,2,2,2,2
2025-08-21 12:04:14.555,-394750,-426224,-444164,-432657,2,2,2,2
2025-08-21 12:04:14.555,-394747,-442608,-427782,-440853,2,2,2,2
2025-08-21 12:04:14.555,-394497,-426233,-427786,-432667,2,2,2,2
2025-08-21 12:04:14.555,-394498,-426235,-427787,-432737,2,2,2,2
2025-08-21 12:04:14.556,-394504,-426234,-427790,-432738,2,2,2,2
2025-08-21 12:04:14.556,-394506,-426238,-427794,-449060,2,2,2,2
2025-08-21 12:04:14.556,-394499,-426230,-444172,-432670,2,2,2,2
2025-08-21 12:04:14.556,-394504,-426232,-427792,-432670,2,2,2,2
2025-08-21 12:04:14.557,-394512,-425987,-427804,-432683,2,2,2,2
2025-08-21 12:04:14.557,-394513,-425990,-427810,-432751,2,2,2,2
2025-08-21 12:04:14.557,-394511,-425987,-427808,-449100,2,2,2,2
2025-08-21 12:04:14.557,-394505,-426236,-444181,-432740,2,2,2,2
2025-08-21 12:04:14.558,-394505,-426236,-444180,-432740,2,2,2,2
2025-08-21 12:04:14.558,-394752,-442613,-427788,-449050,2,2,2,2
2025-08-21 12:04:14.558,-394499,-426233,-444176,-432670,2,2,2,2
2025-08-21 12:04:14.558,-394501,-426233,-427790,-449055,2,2,2,2
2025-08-21 12:04:14.559,-394499,-426230,-427785,-449049,2,2,2,2
2025-08-21 12:04:14.559,-394502,-426231,-444174,-432666,2,2,2,2
2025-08-21 12:04:14.559,-394507,-442371,-427799,-449124,2,2,2,2
2025-08-21 12:04:14.559,-394513,-425990,-444188,-432745,2,2,2,2
2025-08-21 12:04:14.560,-394521,-425995,-444260,-432754,2,2,2,2
2025-08-21 12:04:14.560,-394519,-425994,-444217,-432754,2,2,2,2
2025-08-21 12:04:14.560,-394600,-442393,-427880,-449152,2,2,2,2
2025-08-21 12:04:14.561,-394594,-442385,-427807,-449144,2,2,2,2
2025-08-21 12:04:14.561,-394512,-426239,-444176,-432740,2,2,2,2
2025-08-21 12:04:14.561,-394507,-426233,-444170,-432672,2,2,2,2
2025-08-21 12:04:14.562,-394736,-426143,-428018,-432647,2,2,2,2
2025-08-21 12:04:14.562,-394656,-442512,-428003,-449014,2,2,2,2
2025-08-21 12:04:14.562,-394687,-426129,-444385,-432630,2,2,2,2
2025-08-21 12:04:14.562,-394725,-442521,-428007,-432633,2,2,2,2
2025-08-21 12:04:14.563,-394741,-426219,-428022,-432651,2,2,2,2
2025-08-21 12:04:14.563,-394745,-426221,-428026,-432654,2,2,2,2
2025-08-21 12:04:14.563,-394497,-426229,-444166,-432667,2,2,2,2
2025-08-21 12:04:14.564,-394751,-426226,-444171,-432669,2,2,2,2
2025-08-21 12:04:14.564,-394639,-442492,-427932,-440816,2,2,2,2
2025-08-21 12:04:14.564,-394640,-426107,-427997,-432623,2,2,2,2
2025-08-21 12:04:14.565,-394649,-426119,-428000,-432627,2,2,2,2
2025-08-21 12:04:14.565,-394651,-426189,-428004,-449013,2,2,2,2
2025-08-21 12:04:14.565,-394713,-426127,-444385,-432628,2,2,2,2
2025-08-21 12:04:14.565,-394647,-426132,-428001,-432628,2,2,2,2
2025-08-21 12:04:14.566,-394652,-426141,-428009,-432636,2,2,2,2
2025-08-21 12:04:14.566,-394725,-426215,-428021,-432642,2,2,2,2
2025-08-21 12:04:14.566,-394726,-426214,-428024,-432642,2,2,2,2
2025-08-21 12:04:14.567,-394724,-426139,-444362,-432632,2,2,2,2
2025-08-21 12:04:14.567,-394646,-442512,-427932,-440812,2,2,2,2
2025-08-21 12:04:14.567,-394639,-426119,-427925,-432614,2,2,2,2
2025-08-21 12:04:14.567,-394642,-426184,-427929,-448969,2,2,2,2
2025-08-21 12:04:14.568,-394638,-426184,-427928,-448965,2,2,2,2
2025-08-21 12:04:14.568,-394693,-426112,-444304,-432540,2,2,2,2
2025-08-21 12:04:14.568,-394558,-426103,-444361,-432529,2,2,2,2
2025-08-21 12:04:14.568,-394625,-426107,-427974,-432529,2,2,2,2
2025-08-21 12:04:14.569,-394633,-426115,-427916,-432599,2,2,2,2
2025-08-21 12:04:14.569,-394641,-426121,-427991,-432544,2,2,2,2
2025-08-21 12:04:14.569,-394649,-426194,-427935,-448997,2,2,2,2
2025-08-21 12:04:14.569,-394650,-442547,-428004,-440807,2,2,2,2
2025-08-21 12:04:14.570,-394652,-442554,-428010,-440815,2,2,2,2
2025-08-21 12:04:14.570,-394738,-426222,-428032,-432644,2,2,2,2
2025-08-21 12:04:14.570,-394503,-425986,-444181,-432662,2,2,2,2
2025-08-21 12:04:14.570,-394498,-426239,-444213,-432660,2,2,2,2
2025-08-21 12:04:14.571,-394738,-426227,-427787,-432650,2,2,2,2
2025-08-21 12:04:14.571,-394650,-426140,-428018,-432628,2,2,2,2
2025-08-21 12:04:14.571,-394646,-442552,-428010,-449009,2,2,2,2
2025-08-21 12:04:14.572,-394724,-426143,-444402,-432633,2,2,2,2
2025-08-21 12:04:14.572,-394738,-426221,-428032,-432648,2,2,2,2
2025-08-21 12:04:14.572,-394751,-426234,-427792,-449045,2,2,2,2
2025-08-21 12:04:14.573,-394747,-426233,-427788,-432661,2,2,2,2
2025-08-21 12:04:14.573,-394743,-426233,-444170,-432662,2,2,2,2
2025-08-21 12:04:14.573,-394752,-426239,-427796,-432668,2,2,2,2
2025-08-21 12:04:14.574,-394506,-425989,-427807,-432741,2,2,2,2
2025-08-21 12:04:14.574,-394500,-425985,-427804,-432738,2,2,2,2
2025-08-21 12:04:14.574,-394745,-426233,-427796,-449081,2,2,2,2
2025-08-21 12:04:14.574,-394733,-442602,-427781,-440840,2,2,2,2
2025-08-21 12:04:14.575,-394733,-442603,-427779,-432646,2,2,2,2
2025-08-21 12:04:14.575,-394652,-426138,-428020,-432635,2,2,2,2
2025-08-21 12:04:14.575,-394651,-426137,-428019,-432633,2,2,2,2
2025-08-21 12:04:14.575,-394656,-426203,-428022,-449023,2,2,2,2
2025-08-21 12:04:14.576,-394643,-426189,-428007,-448975,2,2,2,2
2025-08-21 12:04:14.576,-394699,-426117,-444347,-432617,2,2,2,2
2025-08-21 12:04:14.576,-394631,-426114,-427926,-432616,2,2,2,2
2025-08-21 12:04:14.576,-394614,-426102,-427975,-432536,2,2,2,2
2025-08-21 12:04:14.577,-394619,-426105,-427975,-432538,2,2,2,2
2025-08-21 12:04:14.577,-394615,-426034,-427905,-448949,2,2,2,2
2025-08-21 12:04:14.577,-394543,-426091,-444281,-432527,2,2,2,2
2025-08-21 12:04:14.577,-394601,-426085,-427894,-432584,2,2,2,2
2025-08-21 12:04:14.578,-394518,-442384,-427873,-448885,2,2,2,2
2025-08-21 12:04:14.578,-394505,-425986,-427794,-432424,2,2,2,2
2025-08-21 12:04:14.578,-394511,-425990,-427799,-448841,2,2,2,2
2025-08-21 12:04:14.578,-394520,-425999,-444228,-432500,2,2,2,2
2025-08-21 12:04:14.579,-394519,-425996,-444229,-432499,2,2,2,2
2025-08-21 12:04:14.579,-394512,-442377,-427874,-440689,2,2,2,2
2025-08-21 12:04:14.579,-394546,-426000,-427881,-432435,2,2,2,2
2025-08-21 12:04:14.579,-394509,-425993,-427878,-448845,2,2,2,2
2025-08-21 12:04:14.580,-394524,-426010,-427895,-448894,2,2,2,2
2025-08-21 12:04:14.580,-394548,-426095,-444300,-432537,2,2,2,2
2025-08-21 12:04:14.580,-394624,-442494,-427928,-440806,2,2,2,2
2025-08-21 12:04:14.580,-394627,-426115,-444316,-432616,2,2,2,2
2025-08-21 12:04:14.581,-394624,-426112,-444316,-432612,2,2,2,2
2025-08-21 12:04:14.581,-394614,-426102,-427986,-432541,2,2,2,2
2025-08-21 12:04:14.581,-394603,-426029,-427910,-448981,2,2,2,2
2025-08-21 12:04:14.581,-394528,-442434,-427900,-448907,2,2,2,2
2025-08-21 12:04:14.582,-394520,-426013,-427830,-432519,2,2,2,2
2025-08-21 12:04:14.582,-394550,-426011,-427894,-432584,2,2,2,2
2025-08-21 12:04:14.582,-394522,-426012,-444279,-432522,2,2,2,2
2025-08-21 12:04:14.582,-394521,-426015,-444276,-432520,2,2,2,2
2025-08-21 12:04:14.583,-394609,-426043,-427920,-432610,2,2,2,2
2025-08-21 12:04:14.583,-394627,-442512,-428002,-440820,2,2,2,2
2025-08-21 12:04:14.583,-394630,-442576,-428004,-449012,2,2,2,2
2025-08-21 12:04:14.585,-394649,-426203,-428015,-449022,2,2,2,2
2025-08-21 12:04:14.585,-394726,-426215,-428030,-432652,2,2,2,2
2025-08-21 12:04:14.585,-394700,-426217,-444163,-432654,2,2,2,2
2025-08-21 12:04:14.585,-394695,-426210,-428026,-432649,2,2,2,2
2025-08-21 12:04:14.585,-394655,-426143,-428020,-432645,2,2,2,2
2025-08-21 12:04:14.586,-394719,-426143,-428016,-432644,2,2,2,2
2025-08-21 12:04:14.586,-394710,-426137,-428010,-432638,2,2,2,2
2025-08-21 12:04:14.586,-394650,-442586,-428011,-449025,2,2,2,2
2025-08-21 12:04:14.586,-394649,-426199,-428008,-449024,2,2,2,2
2025-08-21 12:04:14.586,-394638,-426192,-427933,-432629,2,2,2,2
2025-08-21 12:04:14.587,-394627,-426184,-427926,-432616,2,2,2,2
2025-08-21 12:04:14.587,-394694,-426122,-444374,-432618,2,2,2,2
2025-08-21 12:04:14.587,-394643,-426131,-428000,-432626,2,2,2,2
2025-08-21 12:04:14.587,-394711,-426134,-444391,-432630,2,2,2,2
2025-08-21 12:04:14.588,-394718,-426139,-444400,-432637,2,2,2,2
2025-08-21 12:04:14.588,-394725,-442525,-428023,-432643,2,2,2,2
2025-08-21 12:04:14.588,-394735,-442564,-427780,-440844,2,2,2,2
2025-08-21 12:04:14.588,-394744,-426216,-427791,-449045,2,2,2,2
2025-08-21 12:04:14.589,-394503,-426232,-427807,-449123,2,2,2,2
2025-08-21 12:04:14.589,-394509,-426237,-444260,-432741,2,2,2,2
2025-08-21 12:04:14.589,-394508,-426234,-444225,-432740,2,2,2,2
2025-08-21 12:04:14.589,-394508,-426231,-427808,-432676,2,2,2,2
2025-08-21 12:04:14.590,-394524,-425993,-427888,-432695,2,2,2,2
2025-08-21 12:04:14.590,-394593,-426002,-427826,-432762,2,2,2,2
2025-08-21 12:04:14.590,-394523,-425993,-427820,-432755,2,2,2,2
2025-08-21 12:04:14.590,-394519,-442373,-427878,-440940,2,2,2,2
2025-08-21 12:04:14.591,-394517,-442369,-427877,-440939,2,2,2,2
2025-08-21 12:04:14.591,-394598,-442417,-427896,-449150,2,2,2,2
2025-08-21 12:04:14.591,-394616,-426085,-427915,-432852,2,2,2,2
2025-08-21 12:04:14.591,-394630,-426040,-427927,-449252,2,2,2,2
2025-08-21 12:04:14.592,-394635,-426046,-427935,-432873,2,2,2,2
2025-08-21 12:04:14.592,-394691,-426101,-427994,-432865,2,2,2,2
2025-08-21 12:04:14.592,-394556,-426093,-444306,-432795,2,2,2,2
2025-08-21 12:04:14.593,-394635,-426110,-428001,-432875,2,2,2,2
2025-08-21 12:04:14.593,-394739,-426208,-428043,-449043,2,2,2,2
2025-08-21 12:04:14.593,-394743,-426219,-428049,-432669,2,2,2,2
2025-08-21 12:04:14.594,-394748,-442573,-428053,-449056,2,2,2,2
2025-08-21 12:04:14.594,-394750,-426221,-428051,-449054,2,2,2,2
2025-08-21 12:04:14.594,-394745,-426213,-428043,-432664,2,2,2,2
2025-08-21 12:04:14.594,-394730,-426140,-428032,-432652,2,2,2,2
2025-08-21 12:04:14.595,-394644,-426120,-428011,-432885,2,2,2,2
2025-08-21 12:04:14.595,-394552,-426094,-427984,-432794,2,2,2,2
2025-08-21 12:04:14.595,-394611,-442410,-427914,-449173,2,2,2,2
2025-08-21 12:04:14.596,-394540,-426010,-444283,-432778,2,2,2,2
2025-08-21 12:04:14.596,-394602,-442394,-427897,-440966,2,2,2,2
2025-08-21 12:04:14.596,-394536,-426012,-444214,-432772,2,2,2,2
2025-08-21 12:04:14.596,-394608,-426019,-427903,-449165,2,2,2,2
2025-08-21 12:04:14.597,-394633,-426107,-444311,-432869,2,2,2,2
2025-08-21 12:04:14.597,-394717,-426128,-444399,-432891,2,2,2,2
2025-08-21 12:04:14.597,-394746,-442605,-428038,-432663,2,2,2,2
2025-08-21 12:04:14.597,-394765,-426246,-428063,-432751,2,2,2,2
2025-08-21 12:04:14.598,-394770,-426255,-428071,-432762,2,2,2,2
2025-08-21 12:04:14.598,-394779,-426265,-428147,-449155,2,2,2,2
2025-08-21 12:04:14.598,-394791,-426341,-444544,-432784,2,2,2,2
2025-08-21 12:04:14.598,-394863,-442700,-428168,-440984,2,2,2,2
2025-08-21 12:04:14.599,-394864,-442700,-428167,-440983,2,2,2,2
2025-08-21 12:04:14.599,-394874,-426359,-428177,-432866,2,2,2,2
2025-08-21 12:04:14.599,-394875,-426358,-428239,-432866,2,2,2,2
2025-08-21 12:04:14.599,-394794,-426343,-444540,-432785,2,2,2,2
2025-08-21 12:04:14.600,-394787,-426339,-444532,-432777,2,2,2,2
2025-08-21 12:04:14.600,-394766,-442638,-428064,-440951,2,2,2,2
2025-08-21 12:04:14.600,-394767,-426253,-428064,-432694,2,2,2,2
2025-08-21 12:04:14.600,-394767,-426249,-428068,-432753,2,2,2,2
2025-08-21 12:04:14.601,-394757,-426235,-428062,-432743,2,2,2,2
2025-08-21 12:04:14.601,-394741,-426221,-428048,-449079,2,2,2,2
2025-08-21 12:04:14.601,-394734,-426213,-444424,-432659,2,2,2,2
2025-08-21 12:04:14.601,-394704,-426212,-428040,-432660,2,2,2,2
2025-08-21 12:04:14.602,-394732,-426210,-428036,-432655,2,2,2,2
2025-08-21 12:04:14.602,-394730,-426209,-428037,-432652,2,2,2,2
2025-08-21 12:04:14.602,-394721,-426195,-428025,-449029,2,2,2,2
2025-08-21 12:04:14.602,-394698,-426104,-444379,-432875,2,2,2,2
2025-08-21 12:04:14.603,-394541,-426009,-444221,-432780,2,2,2,2
2025-08-21 12:04:14.603,-394594,-442418,-427894,-449156,2,2,2,2
2025-08-21 12:04:14.603,-394562,-426002,-427894,-432835,2,2,2,2
2025-08-21 12:04:14.603,-394602,-426009,-427902,-449223,2,2,2,2
2025-08-21 12:04:14.604,-394603,-426009,-427903,-449225,2,2,2,2
2025-08-21 12:04:14.604,-394538,-426008,-444289,-432777,2,2,2,2
2025-08-21 12:04:14.604,-394602,-442428,-427908,-440973,2,2,2,2
2025-08-21 12:04:14.604,-394602,-426008,-427970,-432781,2,2,2,2
2025-08-21 12:04:14.605,-394555,-426088,-444307,-432797,2,2,2,2
2025-08-21 12:04:14.605,-394623,-426029,-427921,-432860,2,2,2,2
2025-08-21 12:04:14.605,-394613,-442407,-427914,-449173,2,2,2,2
2025-08-21 12:04:14.606,-394607,-442403,-427909,-449168,2,2,2,2
2025-08-21 12:04:14.606,-394609,-426083,-444298,-432789,2,2,2,2
2025-08-21 12:04:14.606,-394542,-426081,-444294,-432790,2,2,2,2
2025-08-21 12:04:14.606,-394542,-426085,-444358,-432793,2,2,2,2
2025-08-21 12:04:14.607,-394602,-426085,-427907,-432857,2,2,2,2
2025-08-21 12:04:14.607,-394596,-426016,-427837,-432787,2,2,2,2
2025-08-21 12:04:14.607,-394514,-426002,-427887,-449155,2,2,2,2
2025-08-21 12:04:14.608,-394522,-426005,-427896,-432839,2,2,2,2
2025-08-21 12:04:14.608,-394519,-426004,-427892,-432835,2,2,2,2
2025-08-21 12:04:14.608,-394516,-425997,-444270,-432767,2,2,2,2
2025-08-21 12:04:14.609,-394514,-425998,-427885,-449149,2,2,2,2
2025-08-21 12:04:14.609,-394516,-426000,-444238,-432766,2,2,2,2
2025-08-21 12:04:14.609,-394515,-426000,-444237,-432766,2,2,2,2
2025-08-21 12:04:14.609,-394506,-425991,-427811,-432756,2,2,2,2
2025-08-21 12:04:14.610,-394501,-425989,-427806,-432756,2,2,2,2
2025-08-21 12:04:14.610,-394499,-425985,-427803,-449104,2,2,2,2
2025-08-21 12:04:14.610,-394504,-425989,-427805,-449138,2,2,2,2
2025-08-21 12:04:14.610,-394511,-442378,-427808,-440946,2,2,2,2
2025-08-21 12:04:14.611,-394523,-442421,-427883,-440958,2,2,2,2
2025-08-21 12:04:14.611,-394548,-425996,-427876,-432696,2,2,2,2
2025-08-21 12:04:14.611,-394501,-425985,-444184,-432745,2,2,2,2
2025-08-21 12:04:14.611,-394499,-425985,-444210,-432741,2,2,2,2
2025-08-21 12:04:14.612,-394511,-425996,-444225,-432755,2,2,2,2
2025-08-21 12:04:14.612,-394519,-426007,-444207,-432768,2,2,2,2
2025-08-21 12:04:14.612,-394600,-442442,-427906,-449174,2,2,2,2
2025-08-21 12:04:14.612,-394615,-426104,-427986,-432867,2,2,2,2
2025-08-21 12:04:14.613,-394644,-426128,-428012,-432893,2,2,2,2
2025-08-21 12:04:14.613,-394723,-426203,-428027,-449035,2,2,2,2
2025-08-21 12:04:14.613,-394723,-426140,-428027,-432651,2,2,2,2
2025-08-21 12:04:14.613,-394642,-426185,-428008,-449271,2,2,2,2
2025-08-21 12:04:14.614,-394621,-442420,-427922,-449249,2,2,2,2
2025-08-21 12:04:14.614,-394546,-426095,-444297,-432795,2,2,2,2
2025-08-21 12:04:14.614,-394551,-426098,-427980,-432865,2,2,2,2
2025-08-21 12:04:14.615,-394689,-426098,-444369,-432869,2,2,2,2
2025-08-21 12:04:14.615,-394618,-442414,-427916,-449249,2,2,2,2
2025-08-21 12:04:14.615,-394611,-426091,-444294,-432796,2,2,2,2
2025-08-21 12:04:14.615,-394609,-426024,-427910,-449245,2,2,2,2
2025-08-21 12:04:14.616,-394694,-426106,-444375,-432878,2,2,2,2
2025-08-21 12:04:14.616,-394640,-426119,-428001,-432888,2,2,2,2
2025-08-21 12:04:14.616,-394720,-426135,-444400,-432649,2,2,2,2
2025-08-21 12:04:14.617,-394735,-426216,-428035,-432667,2,2,2,2
2025-08-21 12:04:14.617,-394728,-426212,-428031,-432662,2,2,2,2
2025-08-21 12:04:14.617,-394732,-426214,-428031,-432663,2,2,2,2
2025-08-21 12:04:14.618,-394653,-426137,-428016,-432650,2,2,2,2
2025-08-21 12:04:14.618,-394727,-426208,-428028,-449075,2,2,2,2
2025-08-21 12:04:14.618,-394735,-426213,-444421,-432670,2,2,2,2
2025-08-21 12:04:14.618,-394656,-426136,-428028,-432659,2,2,2,2
2025-08-21 12:04:14.619,-394640,-426124,-428014,-432644,2,2,2,2
2025-08-21 12:04:14.619,-394644,-426127,-428020,-432646,2,2,2,2
2025-08-21 12:04:14.619,-394642,-426188,-428020,-449028,2,2,2,2
2025-08-21 12:04:14.619,-394711,-426132,-444406,-432647,2,2,2,2
2025-08-21 12:04:14.620,-394650,-442547,-428026,-440839,2,2,2,2
2025-08-21 12:04:14.620,-394645,-426123,-428018,-432642,2,2,2,2
2025-08-21 12:04:14.620,-394642,-426185,-428018,-449025,2,2,2,2
2025-08-21 12:04:14.621,-394642,-426183,-428015,-449278,2,2,2,2
2025-08-21 12:04:14.621,-394703,-426116,-444365,-432891,2,2,2,2
2025-08-21 12:04:14.621,-394626,-442491,-427936,-441072,2,2,2,2
2025-08-21 12:04:14.621,-394607,-426088,-427980,-432797,2,2,2,2
2025-08-21 12:04:14.622,-394611,-426084,-427913,-432862,2,2,2,2
2025-08-21 12:04:14.622,-394622,-426030,-427921,-449216,2,2,2,2
2025-08-21 12:04:14.622,-394554,-426092,-444306,-432800,2,2,2,2
2025-08-21 12:04:14.622,-394605,-442432,-427913,-449168,2,2,2,2
2025-08-21 12:04:14.623,-394512,-442374,-427889,-440950,2,2,2,2
2025-08-21 12:04:14.623,-394750,-426229,-427805,-432676,2,2,2,2
2025-08-21 12:04:14.623,-394750,-426232,-427812,-432745,2,2,2,2
2025-08-21 12:04:14.623,-394506,-425991,-444275,-432759,2,2,2,2
2025-08-21 12:04:14.624,-394514,-425995,-444280,-432763,2,2,2,2
2025-08-21 12:04:14.624,-394506,-442371,-427886,-440947,2,2,2,2
2025-08-21 12:04:14.624,-394498,-442619,-427873,-449131,2,2,2,2
2025-08-21 12:04:14.625,-394517,-425999,-427895,-449219,2,2,2,2
2025-08-21 12:04:14.625,-394530,-426015,-444358,-432787,2,2,2,2
2025-08-21 12:04:14.625,-394574,-426093,-427923,-432863,2,2,2,2
2025-08-21 12:04:14.626,-394575,-426092,-427920,-432860,2,2,2,2
2025-08-21 12:04:14.626,-394597,-426083,-427976,-432789,2,2,2,2
2025-08-21 12:04:14.626,-394530,-426016,-427971,-432781,2,2,2,2
2025-08-21 12:04:14.627,-394532,-426084,-427974,-432782,2,2,2,2
2025-08-21 12:04:14.627,-394601,-442404,-427912,-449167,2,2,2,2
2025-08-21 12:04:14.627,-394544,-426090,-444305,-432794,2,2,2,2
2025-08-21 12:04:14.627,-394610,-426034,-427927,-432866,2,2,2,2
2025-08-21 12:04:14.628,-394608,-426029,-427922,-432864,2,2,2,2
2025-08-21 12:04:14.628,-394526,-426014,-444223,-432784,2,2,2,2
2025-08-21 12:04:14.628,-394515,-426006,-427823,-432771,2,2,2,2
2025-08-21 12:04:14.629,-394517,-426011,-427891,-449227,2,2,2,2
2025-08-21 12:04:14.629,-394507,-426002,-427885,-432834,2,2,2,2
2025-08-21 12:04:14.629,-394500,-425993,-427882,-449149,2,2,2,2
2025-08-21 12:04:14.630,-394747,-426234,-427806,-449137,2,2,2,2
2025-08-21 12:04:14.630,-394732,-426223,-444174,-432737,2,2,2,2
2025-08-21 12:04:14.630,-394738,-426226,-444211,-432740,2,2,2,2
2025-08-21 12:04:14.630,-394751,-426235,-427805,-432747,2,2,2,2
2025-08-21 12:04:14.631,-394509,-425992,-427819,-432761,2,2,2,2
2025-08-21 12:04:14.631,-394515,-442382,-427889,-449154,2,2,2,2
2025-08-21 12:04:14.631,-394513,-425998,-427883,-449153,2,2,2,2
2025-08-21 12:04:14.631,-394510,-442378,-427881,-440958,2,2,2,2
2025-08-21 12:04:14.632,-394744,-442613,-427794,-432744,2,2,2,2
2025-08-21 12:04:14.632,-394655,-426138,-428023,-432653,2,2,2,2
2025-08-21 12:04:14.632,-394642,-426119,-428005,-432635,2,2,2,2
2025-08-21 12:04:14.632,-394702,-426112,-444387,-432630,2,2,2,2
2025-08-21 12:04:14.633,-394697,-426106,-444388,-432626,2,2,2,2
2025-08-21 12:04:14.633,-394619,-442442,-427925,-440810,2,2,2,2
2025-08-21 12:04:14.633,-394626,-426032,-427930,-449008,2,2,2,2
2025-08-21 12:04:14.634,-394640,-426108,-428010,-432639,2,2,2,2
2025-08-21 12:04:14.634,-394650,-426182,-428020,-449031,2,2,2,2
2025-08-21 12:04:14.634,-394712,-426117,-444368,-432648,2,2,2,2
2025-08-21 12:04:14.634,-394642,-426114,-428014,-432647,2,2,2,2
2025-08-21 12:04:14.635,-394629,-442482,-428004,-449024,2,2,2,2
2025-08-21 12:04:14.635,-394612,-426016,-427926,-432626,2,2,2,2
2025-08-21 12:04:14.635,-394607,-426011,-427987,-432620,2,2,2,2
2025-08-21 12:04:14.635,-394543,-426013,-444304,-432619,2,2,2,2
2025-08-21 12:04:14.636,-394604,-426007,-427912,-432612,2,2,2,2
2025-08-21 12:04:14.636,-394597,-442380,-427903,-440727,2,2,2,2
2025-08-21 12:04:14.636,-394565,-425992,-427903,-432593,2,2,2,2
2025-08-21 12:04:14.637,-394517,-425984,-427893,-448897,2,2,2,2
2025-08-21 12:04:14.637,-394492,-425957,-427806,-432425,2,2,2,2
2025-08-21 12:04:14.637,-394483,-425882,-444181,-432483,2,2,2,2
2025-08-21 12:04:14.637,-394490,-425955,-444188,-432492,2,2,2,2
2025-08-21 12:04:14.638,-394495,-425963,-427876,-448884,2,2,2,2
2025-08-21 12:04:14.638,-394494,-425966,-444261,-432503,2,2,2,2
2025-08-21 12:04:14.638,-394481,-425954,-427803,-448808,2,2,2,2
2025-08-21 12:04:14.638,-394472,-425881,-427795,-432415,2,2,2,2
2025-08-21 12:04:14.639,-394483,-409539,-427802,-448869,2,2,2,2
2025-08-21 12:04:14.639,-394478,-425951,-427800,-448867,2,2,2,2
2025-08-21 12:04:14.639,-394478,-425884,-444181,-432416,2,2,2,2
2025-08-21 12:04:14.639,-394472,-409528,-427789,-440600,2,2,2,2
2025-08-21 12:04:14.640,-394466,-425939,-427785,-432403,2,2,2,2
2025-08-21 12:04:14.640,-394473,-425886,-427793,-432408,2,2,2,2
2025-08-21 12:04:14.640,-394490,-409585,-427873,-448875,2,2,2,2
2025-08-21 12:04:14.640,-394496,-425973,-444229,-432494,2,2,2,2
2025-08-21 12:04:14.641,-394507,-425983,-444267,-432504,2,2,2,2
2025-08-21 12:04:14.641,-394506,-409596,-427881,-440694,2,2,2,2
2025-08-21 12:04:14.641,-394507,-425984,-427887,-432439,2,2,2,2
2025-08-21 12:04:14.641,-394512,-425987,-427893,-448888,2,2,2,2
2025-08-21 12:04:14.642,-394514,-425991,-427828,-432504,2,2,2,2
2025-08-21 12:04:14.642,-394505,-425983,-427884,-448883,2,2,2,2
2025-08-21 12:04:14.642,-394506,-425975,-427886,-432435,2,2,2,2
2025-08-21 12:04:14.643,-394526,-425994,-427904,-432582,2,2,2,2
2025-08-21 12:04:14.643,-394601,-426004,-427977,-432528,2,2,2,2
2025-08-21 12:04:14.643,-394607,-426013,-427920,-448952,2,2,2,2
2025-08-21 12:04:14.643,-394555,-426096,-444386,-432617,2,2,2,2
2025-08-21 12:04:14.644,-394693,-426111,-444397,-432629,2,2,2,2
2025-08-21 12:04:14.644,-394635,-442508,-428025,-449025,2,2,2,2
2025-08-21 12:04:14.644,-394632,-426122,-428021,-432637,2,2,2,2
2025-08-21 12:04:14.644,-394622,-426047,-428011,-449013,2,2,2,2
2025-08-21 12:04:14.645,-394613,-426038,-428003,-449005,2,2,2,2
2025-08-21 12:04:14.645,-394529,-426084,-444304,-432537,2,2,2,2
2025-08-21 12:04:14.645,-394508,-442376,-427896,-440704,2,2,2,2
2025-08-21 12:04:14.645,-394475,-425956,-444182,-432413,2,2,2,2
2025-08-21 12:04:14.646,-394441,-425858,-444147,-432635,2,2,2,2
2025-08-21 12:04:14.646,-394350,-425764,-427672,-432606,2,2,2,2
2025-08-21 12:04:14.646,-394265,-409357,-427650,-448903,2,2,2,2
2025-08-21 12:04:14.647,-394265,-409357,-427647,-448902,2,2,2,2
2025-08-21 12:04:14.647,-394305,-425749,-444035,-432523,2,2,2,2
2025-08-21 12:04:14.647,-394345,-425826,-427728,-432537,2,2,2,2
2025-08-21 12:04:14.647,-394354,-425836,-427672,-432610,2,2,2,2
2025-08-21 12:04:14.648,-394373,-425853,-427749,-432627,2,2,2,2
2025-08-21 12:04:14.648,-394446,-425859,-427760,-432635,2,2,2,2
2025-08-21 12:04:14.648,-394397,-425941,-427778,-448779,2,2,2,2
2025-08-21 12:04:14.649,-394493,-425965,-427806,-432421,2,2,2,2
2025-08-21 12:04:14.649,-394500,-425972,-427876,-432432,2,2,2,2
2025-08-21 12:04:14.649,-394495,-425969,-427875,-448845,2,2,2,2
2025-08-21 12:04:14.650,-394512,-425986,-427889,-448892,2,2,2,2
2025-08-21 12:04:14.650,-394531,-426001,-444287,-432525,2,2,2,2
2025-08-21 12:04:14.650,-394522,-425992,-444280,-432519,2,2,2,2
2025-08-21 12:04:14.650,-394514,-425981,-427826,-432515,2,2,2,2
2025-08-21 12:04:14.651,-394502,-425967,-427877,-432438,2,2,2,2
2025-08-21 12:04:14.651,-394487,-425955,-427797,-448869,2,2,2,2
2025-08-21 12:04:14.651,-394492,-425960,-427805,-448839,2,2,2,2
2025-08-21 12:04:14.651,-394493,-409546,-427873,-440680,2,2,2,2
2025-08-21 12:04:14.652,-394498,-409548,-427880,-440685,2,2,2,2
2025-08-21 12:04:14.652,-394494,-425965,-427878,-432428,2,2,2,2
2025-08-21 12:04:14.652,-394448,-425958,-444189,-432484,2,2,2,2
2025-08-21 12:04:14.652,-394475,-425958,-444217,-432416,2,2,2,2
2025-08-21 12:04:14.653,-394470,-425959,-427800,-448798,2,2,2,2
2025-08-21 12:04:14.653,-394473,-409578,-427802,-440675,2,2,2,2
2025-08-21 12:04:14.653,-394397,-409535,-427792,-448791,2,2,2,2
2025-08-21 12:04:14.653,-394382,-425868,-427769,-432387,2,2,2,2
2025-08-21 12:04:14.654,-394370,-425852,-427756,-432629,2,2,2,2
2025-08-21 12:04:14.654,-394374,-425791,-427755,-449014,2,2,2,2
2025-08-21 12:04:14.654,-394380,-425860,-427759,-432638,2,2,2,2
2025-08-21 12:04:14.654,-394392,-409547,-427767,-448776,2,2,2,2
2025-08-21 12:04:14.655,-394474,-409565,-427785,-448797,2,2,2,2
2025-08-21 12:04:14.655,-394489,-425967,-444186,-432490,2,2,2,2
2025-08-21 12:04:14.655,-394487,-425963,-444216,-432484,2,2,2,2
2025-08-21 12:04:14.655,-394469,-425877,-444165,-432399,2,2,2,2
2025-08-21 12:04:14.656,-394463,-425869,-444157,-432392,2,2,2,2
2025-08-21 12:04:14.656,-394393,-409484,-427773,-448775,2,2,2,2
2025-08-21 12:04:14.656,-394393,-425937,-427776,-448775,2,2,2,2
2025-08-21 12:04:14.657,-394364,-425838,-427748,-432611,2,2,2,2
2025-08-21 12:04:14.657,-394355,-425829,-427678,-432608,2,2,2,2
2025-08-21 12:04:14.657,-394290,-425826,-444057,-432544,2,2,2,2
2025-08-21 12:04:14.658,-394291,-425826,-444053,-432609,2,2,2,2
2025-08-21 12:04:14.658,-394353,-409375,-427667,-440735,2,2,2,2
2025-08-21 12:04:14.658,-394356,-425759,-427729,-432544,2,2,2,2
2025-08-21 12:04:14.659,-394355,-425828,-427734,-432614,2,2,2,2
2025-08-21 12:04:14.659,-394348,-425761,-427668,-448960,2,2,2,2
2025-08-21 12:04:14.659,-394349,-425761,-427668,-448991,2,2,2,2
2025-08-21 12:04:14.659,-394361,-425838,-427679,-432615,2,2,2,2
2025-08-21 12:04:14.660,-394377,-409472,-427758,-440823,2,2,2,2
2025-08-21 12:04:14.660,-394385,-425867,-427767,-432639,2,2,2,2
2025-08-21 12:04:14.660,-394392,-425875,-427770,-432389,2,2,2,2
2025-08-21 12:04:14.660,-394449,-425866,-444146,-432638,2,2,2,2
2025-08-21 12:04:14.661,-394375,-425921,-427754,-432632,2,2,2,2
2025-08-21 12:04:14.661,-394375,-409466,-427754,-440821,2,2,2,2
2025-08-21 12:04:14.661,-394372,-409397,-427748,-449007,2,2,2,2
2025-08-21 12:04:14.662,-394376,-425784,-427755,-449013,2,2,2,2
2025-08-21 12:04:14.662,-394381,-425790,-427762,-449019,2,2,2,2
2025-08-21 12:04:14.662,-394434,-425847,-444140,-432631,2,2,2,2
2025-08-21 12:04:14.662,-394368,-425846,-427760,-432632,2,2,2,2
2025-08-21 12:04:14.663,-394376,-425788,-427771,-449023,2,2,2,2
2025-08-21 12:04:14.663,-394451,-425861,-444161,-432387,2,2,2,2
2025-08-21 12:04:14.663,-394468,-425879,-427792,-432400,2,2,2,2
2025-08-21 12:04:14.664,-394463,-425875,-427783,-432396,2,2,2,2
2025-08-21 12:04:14.665,-394397,-409551,-427783,-448778,2,2,2,2
2025-08-21 12:04:14.665,-394484,-425955,-444186,-432416,2,2,2,2
2025-08-21 12:04:14.665,-394505,-409596,-427885,-440691,2,2,2,2
2025-08-21 12:04:14.665,-394512,-442373,-427890,-440700,2,2,2,2
2025-08-21 12:04:14.665,-394507,-425986,-427886,-432439,2,2,2,2
2025-08-21 12:04:14.665,-394505,-425978,-427815,-432495,2,2,2,2
2025-08-21 12:04:14.665,-394496,-425973,-444260,-432489,2,2,2,2
2025-08-21 12:04:14.666,-394493,-425973,-427812,-432490,2,2,2,2
2025-08-21 12:04:14.667,-394486,-425962,-427802,-432414,2,2,2,2
2025-08-21 12:04:14.667,-394484,-425957,-427801,-432413,2,2,2,2
2025-08-21 12:04:14.667,-394480,-425954,-427797,-448791,2,2,2,2
2025-08-21 12:04:14.667,-394477,-425952,-427791,-448818,2,2,2,2
2025-08-21 12:04:14.667,-394471,-425883,-444170,-432401,2,2,2,2
2025-08-21 12:04:14.667,-394469,-425883,-427780,-432400,2,2,2,2
2025-08-21 12:04:14.668,-394474,-425956,-427784,-432406,2,2,2,2
2025-08-21 12:04:14.668,-394483,-425966,-427793,-432482,2,2,2,2
2025-08-21 12:04:14.668,-394496,-425978,-427805,-448881,2,2,2,2
2025-08-21 12:04:14.668,-394500,-425981,-444224,-432502,2,2,2,2
2025-08-21 12:04:14.669,-394521,-426000,-444274,-432520,2,2,2,2
2025-08-21 12:04:14.669,-394618,-442482,-427926,-440810,2,2,2,2
2025-08-21 12:04:14.669,-394638,-426118,-428007,-432635,2,2,2,2
2025-08-21 12:04:14.669,-394647,-426187,-428013,-449024,2,2,2,2
2025-08-21 12:04:14.670,-394646,-426192,-428016,-449029,2,2,2,2
2025-08-21 12:04:14.670,-394717,-426133,-444411,-432653,2,2,2,2
2025-08-21 12:04:14.670,-394729,-442561,-427781,-440857,2,2,2,2
2025-08-21 12:04:14.670,-394698,-426209,-444168,-432663,2,2,2,2
2025-08-21 12:04:14.671,-394696,-426143,-444167,-432665,2,2,2,2
2025-08-21 12:04:14.671,-394746,-426219,-427800,-449063,2,2,2,2
2025-08-21 12:04:14.671,-394730,-442556,-427785,-449047,2,2,2,2
2025-08-21 12:04:14.672,-394656,-442548,-428031,-449041,2,2,2,2
2025-08-21 12:04:14.672,-394690,-426136,-427780,-432661,2,2,2,2
2025-08-21 12:04:14.672,-394732,-426143,-427791,-432672,2,2,2,2
2025-08-21 12:04:14.672,-394497,-426224,-427873,-432688,2,2,2,2
2025-08-21 12:04:14.673,-394501,-426225,-427874,-432688,2,2,2,2
2025-08-21 12:04:14.673,-394504,-426231,-427814,-432756,2,2,2,2
2025-08-21 12:04:14.673,-394513,-442623,-427884,-449150,2,2,2,2
2025-08-21 12:04:14.674,-394498,-426228,-427808,-432685,2,2,2,2
2025-08-21 12:04:14.674,-394744,-426219,-444181,-432738,2,2,2,2
2025-08-21 12:04:14.674,-394739,-426213,-427794,-449085,2,2,2,2
2025-08-21 12:04:14.675,-394738,-426212,-427794,-449048,2,2,2,2
2025-08-21 12:04:14.675,-394737,-426215,-444177,-432668,2,2,2,2
2025-08-21 12:04:14.675,-394738,-426222,-444214,-432671,2,2,2,2
2025-08-21 12:04:14.675,-394749,-426231,-427811,-432744,2,2,2,2
2025-08-21 12:04:14.676,-394505,-425985,-427888,-432690,2,2,2,2
2025-08-21 12:04:14.676,-394521,-426001,-427905,-449154,2,2,2,2
2025-08-21 12:04:14.676,-394597,-426015,-427922,-449205,2,2,2,2
2025-08-21 12:04:14.676,-394526,-442428,-427918,-440979,2,2,2,2
2025-08-21 12:04:14.677,-394516,-442379,-427906,-440965,2,2,2,2
2025-08-21 12:04:14.677,-394503,-426237,-427892,-432697,2,2,2,2
2025-08-21 12:04:14.677,-394506,-426239,-427893,-432698,2,2,2,2
2025-08-21 12:04:14.677,-394513,-425991,-444284,-432765,2,2,2,2
2025-08-21 12:04:14.678,-394517,-425992,-427902,-449219,2,2,2,2
2025-08-21 12:04:14.678,-394521,-425998,-444293,-432777,2,2,2,2
2025-08-21 12:04:14.678,-394522,-442382,-427911,-440970,2,2,2,2
2025-08-21 12:04:14.678,-394595,-426003,-427985,-432790,2,2,2,2
2025-08-21 12:04:14.679,-394601,-426008,-427990,-432795,2,2,2,2
2025-08-21 12:04:14.679,-394600,-426009,-427927,-449212,2,2,2,2
2025-08-21 12:04:14.679,-394600,-426007,-427921,-432859,2,2,2,2
2025-08-21 12:04:14.679,-394601,-442396,-427926,-449253,2,2,2,2
2025-08-21 12:04:14.680,-394600,-442431,-427928,-449255,2,2,2,2
2025-08-21 12:04:14.680,-394575,-426084,-444317,-432878,2,2,2,2
2025-08-21 12:04:14.680,-394693,-426103,-444404,-432643,2,2,2,2
2025-08-21 12:04:14.680,-394709,-426121,-444422,-432663,2,2,2,2
2025-08-21 12:04:14.681,-394717,-426130,-444430,-432668,2,2,2,2
2025-08-21 12:04:14.681,-394725,-442551,-428052,-449122,2,2,2,2
2025-08-21 12:04:14.681,-394743,-426219,-428133,-449145,2,2,2,2
2025-08-21 12:04:14.682,-394755,-426227,-428143,-432704,2,2,2,2
2025-08-21 12:04:14.682,-394776,-426244,-428160,-432847,2,2,2,2
2025-08-21 12:04:14.682,-394791,-426257,-444558,-432792,2,2,2,2
2025-08-21 12:04:14.683,-394830,-426262,-444561,-432799,2,2,2,2
2025-08-21 12:04:14.683,-394851,-442639,-428163,-440981,2,2,2,2
2025-08-21 12:04:14.683,-394772,-426238,-428083,-432772,2,2,2,2
2025-08-21 12:04:14.684,-394771,-426233,-428081,-432767,2,2,2,2
2025-08-21 12:04:14.684,-394780,-426242,-428154,-449162,2,2,2,2
2025-08-21 12:04:14.684,-394856,-426256,-428168,-449207,2,2,2,2
2025-08-21 12:04:14.684,-394863,-426266,-428176,-432860,2,2,2,2
2025-08-21 12:04:14.685,-394866,-426268,-428176,-432863,2,2,2,2
2025-08-21 12:04:14.685,-394785,-426253,-428094,-432783,2,2,2,2
2025-08-21 12:04:14.685,-394777,-426244,-428084,-432774,2,2,2,2
2025-08-21 12:04:14.685,-394770,-426240,-444493,-432765,2,2,2,2
2025-08-21 12:04:14.686,-394758,-426228,-444484,-432756,2,2,2,2
2025-08-21 12:04:14.686,-394750,-442605,-428060,-440938,2,2,2,2
2025-08-21 12:04:14.686,-394737,-426144,-428045,-432674,2,2,2,2
2025-08-21 12:04:14.686,-394655,-426192,-428032,-449078,2,2,2,2
2025-08-21 12:04:14.687,-394638,-426109,-428013,-432647,2,2,2,2
2025-08-21 12:04:14.687,-394559,-426092,-444315,-432887,2,2,2,2
2025-08-21 12:04:14.687,-394552,-426084,-444338,-432880,2,2,2,2
2025-08-21 12:04:14.687,-394610,-426083,-427918,-432878,2,2,2,2
2025-08-21 12:04:14.688,-394626,-442418,-427933,-449274,2,2,2,2
2025-08-21 12:04:14.688,-394557,-426093,-444315,-432886,2,2,2,2
2025-08-21 12:04:14.688,-394619,-426031,-427934,-449269,2,2,2,2
2025-08-21 12:04:14.688,-394556,-426094,-444387,-432883,2,2,2,2
2025-08-21 12:04:14.689,-394623,-442481,-428011,-441082,2,2,2,2
2025-08-21 12:04:14.689,-394630,-442487,-428021,-449026,2,2,2,2
2025-08-21 12:04:14.689,-394632,-426108,-444409,-432642,2,2,2,2
2025-08-21 12:04:14.689,-394633,-426044,-428025,-449277,2,2,2,2
2025-08-21 12:04:14.690,-394694,-426106,-444405,-432894,2,2,2,2
2025-08-21 12:04:14.690,-394641,-442499,-428031,-449033,2,2,2,2
2025-08-21 12:04:14.690,-394717,-426123,-444423,-432656,2,2,2,2
2025-08-21 12:04:14.691,-394722,-426126,-444429,-432659,2,2,2,2
2025-08-21 12:04:14.691,-394652,-426187,-428037,-432652,2,2,2,2
2025-08-21 12:04:14.691,-394649,-442563,-428036,-449032,2,2,2,2
2025-08-21 12:04:14.692,-394722,-426122,-428042,-432653,2,2,2,2
2025-08-21 12:04:14.692,-394737,-426138,-444435,-432664,2,2,2,2
2025-08-21 12:04:14.692,-394757,-426221,-428136,-432691,2,2,2,2
2025-08-21 12:04:14.693,-394765,-426228,-428146,-432699,2,2,2,2
2025-08-21 12:04:14.693,-394757,-426223,-428075,-432752,2,2,2,2
2025-08-21 12:04:14.693,-394768,-426235,-428149,-449146,2,2,2,2
2025-08-21 12:04:14.694,-394854,-426252,-428175,-432849,2,2,2,2
2025-08-21 12:04:14.694,-394793,-426256,-428239,-432787,2,2,2,2
2025-08-21 12:04:14.694,-394856,-426257,-428173,-449201,2,2,2,2
2025-08-21 12:04:14.695,-394782,-426254,-428163,-449163,2,2,2,2
2025-08-21 12:04:14.695,-394775,-426247,-444541,-432775,2,2,2,2
2025-08-21 12:04:14.695,-394761,-442612,-428141,-440954,2,2,2,2
2025-08-21 12:04:14.695,-394758,-426225,-428073,-432763,2,2,2,2
2025-08-21 12:04:14.696,-394763,-426228,-428140,-432833,2,2,2,2
2025-08-21 12:04:14.696,-394773,-426237,-428088,-432778,2,2,2,2
2025-08-21 12:04:14.696,-394779,-426242,-444543,-432782,2,2,2,2
2025-08-21 12:04:14.696,-394775,-442622,-428158,-440967,2,2,2,2
2025-08-21 12:04:14.697,-394763,-442610,-428147,-440953,2,2,2,2
2025-08-21 12:04:14.697,-394752,-426214,-428136,-432688,2,2,2,2
2025-08-21 12:04:14.697,-394751,-426216,-428073,-432750,2,2,2,2
2025-08-21 12:04:14.697,-394752,-426219,-444490,-432748,2,2,2,2
2025-08-21 12:04:14.698,-394747,-426218,-444491,-432746,2,2,2,2
2025-08-21 12:04:14.698,-394744,-442567,-428134,-440936,2,2,2,2
2025-08-21 12:04:14.698,-394737,-426143,-428063,-432673,2,2,2,2
2025-08-21 12:04:14.699,-394741,-426215,-428066,-432742,2,2,2,2
2025-08-21 12:04:14.699,-394736,-426208,-428129,-449061,2,2,2,2
2025-08-21 12:04:14.699,-394744,-426215,-444486,-432745,2,2,2,2
2025-08-21 12:04:14.699,-394761,-426230,-428150,-432697,2,2,2,2
2025-08-21 12:04:14.700,-394803,-426239,-428156,-432704,2,2,2,2
2025-08-21 12:04:14.700,-394769,-426236,-428090,-432762,2,2,2,2
2025-08-21 12:04:14.700,-394758,-426231,-428148,-449142,2,2,2,2
2025-08-21 12:04:14.700,-394759,-426226,-428074,-432751,2,2,2,2
2025-08-21 12:04:14.701,-394751,-426215,-428061,-432744,2,2,2,2
2025-08-21 12:04:14.701,-394746,-442596,-428059,-449126,2,2,2,2
2025-08-21 12:04:14.701,-394728,-426196,-428041,-449078,2,2,2,2
2025-08-21 12:04:14.701,-394652,-426189,-428031,-432655,2,2,2,2
2025-08-21 12:04:14.702,-394655,-426193,-428031,-432662,2,2,2,2
2025-08-21 12:04:14.702,-394718,-426128,-444415,-432666,2,2,2,2
2025-08-21 12:04:14.702,-394649,-426125,-428029,-432667,2,2,2,2
2025-08-21 12:04:14.702,-394717,-426128,-444416,-432671,2,2,2,2
2025-08-21 12:04:14.703,-394729,-426140,-444427,-432745,2,2,2,2
2025-08-21 12:04:14.703,-394751,-442574,-428130,-440958,2,2,2,2
2025-08-21 12:04:14.703,-394742,-426212,-428052,-449143,2,2,2,2
2025-08-21 12:04:14.704,-394736,-442596,-428049,-449138,2,2,2,2
2025-08-21 12:04:14.704,-394741,-426218,-444441,-432760,2,2,2,2
2025-08-21 12:04:14.704,-394732,-426141,-444428,-432745,2,2,2,2
2025-08-21 12:04:14.704,-394726,-426133,-428039,-432675,2,2,2,2
2025-08-21 12:04:14.705,-394725,-426135,-428041,-432677,2,2,2,2
2025-08-21 12:04:14.705,-394733,-426140,-428046,-432746,2,2,2,2
2025-08-21 12:04:14.705,-394744,-426212,-428056,-432753,2,2,2,2
2025-08-21 12:04:14.705,-394753,-442600,-428062,-440952,2,2,2,2
2025-08-21 12:04:14.706,-394757,-442600,-428130,-432765,2,2,2,2
2025-08-21 12:04:14.706,-394758,-426221,-428133,-432702,2,2,2,2
2025-08-21 12:04:14.706,-394759,-426226,-428138,-432836,2,2,2,2
2025-08-21 12:04:14.707,-394748,-426212,-444446,-432761,2,2,2,2
2025-08-21 12:04:14.707,-394737,-426204,-428053,-449102,2,2,2,2
2025-08-21 12:04:14.707,-394727,-426133,-444426,-432672,2,2,2,2
2025-08-21 12:04:14.707,-394723,-442551,-428042,-440864,2,2,2,2
2025-08-21 12:04:14.707,-394650,-426133,-428034,-432669,2,2,2,2
2025-08-21 12:04:14.708,-394651,-426134,-428033,-432671,2,2,2,2
2025-08-21 12:04:14.708,-394640,-426189,-428024,-449078,2,2,2,2
2025-08-21 12:04:14.708,-394618,-426040,-428005,-449025,2,2,2,2
2025-08-21 12:04:14.708,-394612,-426094,-427935,-432893,2,2,2,2
2025-08-21 12:04:14.709,-394606,-442440,-427932,-449267,2,2,2,2
2025-08-21 12:04:14.709,-394570,-426084,-427926,-432877,2,2,2,2
2025-08-21 12:04:14.709,-394594,-426012,-427983,-432871,2,2,2,2
2025-08-21 12:04:14.709,-394532,-426010,-444337,-432867,2,2,2,2
2025-08-21 12:04:14.710,-394609,-426020,-427935,-432881,2,2,2,2
2025-08-21 12:04:14.710,-394557,-426092,-428008,-432890,2,2,2,2
2025-08-21 12:04:14.710,-394629,-442415,-428015,-449025,2,2,2,2
2025-08-21 12:04:14.711,-394725,-426128,-444433,-432740,2,2,2,2
2025-08-21 12:04:14.711,-394741,-442527,-428130,-440943,2,2,2,2
2025-08-21 12:04:14.711,-394749,-426220,-444457,-432759,2,2,2,2
2025-08-21 12:04:14.711,-394751,-426218,-428139,-449144,2,2,2,2
2025-08-21 12:04:14.712,-394744,-426209,-444447,-432687,2,2,2,2
2025-08-21 12:04:14.712,-394744,-426210,-444514,-432756,2,2,2,2
2025-08-21 12:04:14.712,-394757,-426219,-428071,-432764,2,2,2,2
2025-08-21 12:04:14.713,-394756,-442572,-428134,-440956,2,2,2,2
2025-08-21 12:04:14.713,-394769,-442617,-428146,-449162,2,2,2,2
2025-08-21 12:04:14.713,-394781,-426242,-444541,-432788,2,2,2,2
2025-08-21 12:04:14.713,-394772,-442616,-428152,-440971,2,2,2,2
2025-08-21 12:04:14.714,-394757,-426217,-428133,-432695,2,2,2,2
2025-08-21 12:04:14.714,-394762,-426223,-428139,-432701,2,2,2,2
2025-08-21 12:04:14.714,-394778,-426241,-428095,-432783,2,2,2,2
2025-08-21 12:04:14.714,-394787,-426247,-444552,-432791,2,2,2,2
2025-08-21 12:04:14.715,-394771,-426232,-444538,-432776,2,2,2,2
2025-08-21 12:04:14.715,-394769,-442614,-428153,-432772,2,2,2,2
2025-08-21 12:04:14.715,-394771,-426236,-428156,-432840,2,2,2,2
2025-08-21 12:04:14.715,-394762,-426230,-428084,-432768,2,2,2,2
2025-08-21 12:04:14.716,-394760,-426224,-428081,-432767,2,2,2,2
2025-08-21 12:04:14.716,-394752,-426212,-428138,-449144,2,2,2,2
2025-08-21 12:04:14.716,-394750,-426211,-444491,-432759,2,2,2,2
2025-08-21 12:04:14.716,-394757,-426221,-428145,-432704,2,2,2,2
2025-08-21 12:04:14.717,-394747,-426216,-428138,-432701,2,2,2,2
2025-08-21 12:04:14.717,-394737,-426212,-428066,-432758,2,2,2,2
2025-08-21 12:04:14.717,-394746,-426222,-428140,-449152,2,2,2,2
2025-08-21 12:04:14.717,-394754,-426231,-444468,-432771,2,2,2,2
2025-08-21 12:04:14.718,-394765,-426239,-444543,-432780,2,2,2,2
2025-08-21 12:04:14.718,-394776,-442633,-428172,-449175,2,2,2,2
2025-08-21 12:04:14.718,-394830,-426270,-428259,-432873,2,2,2,2
2025-08-21 12:04:14.718,-394875,-426286,-428272,-449271,2,2,2,2
2025-08-21 12:04:14.719,-394883,-426293,-428279,-449281,2,2,2,2
2025-08-21 12:04:14.719,-394947,-426353,-444663,-432898,2,2,2,2
2025-08-21 12:04:14.719,-394882,-442737,-428276,-441093,2,2,2,2
2025-08-21 12:04:14.719,-394813,-426346,-444652,-432894,2,2,2,2
2025-08-21 12:04:14.720,-394874,-426341,-444646,-432889,2,2,2,2
2025-08-21 12:04:14.720,-394893,-426294,-428282,-449292,2,2,2,2
2025-08-21 12:04:14.720,-394900,-442750,-428288,-449298,2,2,2,2
2025-08-21 12:04:14.721,-394899,-442751,-428033,-449301,2,2,2,2
2025-08-21 12:04:14.721,-394932,-426368,-428035,-432920,2,2,2,2
2025-08-21 12:04:14.721,-394894,-426366,-428287,-432916,2,2,2,2
2025-08-21 12:04:14.721,-394810,-426350,-444620,-432897,2,2,2,2
2025-08-21 12:04:14.722,-394858,-426271,-428188,-432884,2,2,2,2
2025-08-21 12:04:14.722,-394777,-442639,-428171,-441062,2,2,2,2
2025-08-21 12:04:14.722,-394774,-442634,-428166,-449250,2,2,2,2
2025-08-21 12:04:14.723,-394734,-426203,-428062,-432694,2,2,2,2
2025-08-21 12:04:14.723,-394733,-426140,-444445,-432759,2,2,2,2
2025-08-21 12:04:14.723,-394746,-426217,-444521,-432768,2,2,2,2
2025-08-21 12:04:14.724,-394759,-426229,-428149,-449162,2,2,2,2
2025-08-21 12:04:14.724,-394884,-426350,-428270,-432896,2,2,2,2
2025-08-21 12:04:14.725,-394892,-426358,-428276,-432903,2,2,2,2
2025-08-21 12:04:14.725,-394886,-426349,-428271,-432900,2,2,2,2
2025-08-21 12:04:14.725,-394886,-426280,-428269,-449281,2,2,2,2
2025-08-21 12:04:14.725,-394885,-426348,-428270,-432897,2,2,2,2
2025-08-21 12:04:14.726,-394897,-442749,-428283,-441103,2,2,2,2
2025-08-21 12:04:14.726,-394900,-426369,-428034,-432917,2,2,2,2
2025-08-21 12:04:14.726,-394894,-426359,-444662,-432907,2,2,2,2
2025-08-21 12:04:14.726,-394948,-426346,-444619,-432895,2,2,2,2
2025-08-21 12:04:14.727,-394811,-426271,-444611,-432884,2,2,2,2
2025-08-21 12:04:14.727,-394860,-442646,-428182,-441064,2,2,2,2
2025-08-21 12:04:14.727,-394777,-442628,-428165,-449175,2,2,2,2
2025-08-21 12:04:14.727,-394783,-426247,-428231,-432791,2,2,2,2
2025-08-21 12:04:14.728,-394850,-426249,-428237,-432797,2,2,2,2
2025-08-21 12:04:14.728,-394775,-426238,-428164,-449168,2,2,2,2
2025-08-21 12:04:14.728,-394765,-426228,-428156,-432841,2,2,2,2
2025-08-21 12:04:14.728,-394764,-426227,-428154,-432843,2,2,2,2
2025-08-21 12:04:14.729,-394762,-426226,-428150,-432843,2,2,2,2
2025-08-21 12:04:14.729,-394759,-426222,-428084,-432778,2,2,2,2
2025-08-21 12:04:14.729,-394769,-426223,-444474,-432786,2,2,2,2
2025-08-21 12:04:14.730,-394778,-426230,-444609,-432792,2,2,2,2
2025-08-21 12:04:14.730,-394768,-442573,-428149,-449162,2,2,2,2
2025-08-21 12:04:14.730,-394762,-426214,-428144,-449156,2,2,2,2
2025-08-21 12:04:14.730,-394772,-426229,-428155,-449233,2,2,2,2
2025-08-21 12:04:14.731,-394782,-426238,-428166,-449243,2,2,2,2
2025-08-21 12:04:14.731,-394782,-426241,-444556,-432796,2,2,2,2
2025-08-21 12:04:14.731,-394776,-426233,-428232,-432790,2,2,2,2
2025-08-21 12:04:14.731,-394770,-426234,-444545,-432783,2,2,2,2
2025-08-21 12:04:14.732,-394774,-426242,-444549,-432790,2,2,2,2
2025-08-21 12:04:14.732,-394762,-426229,-444534,-432778,2,2,2,2
2025-08-21 12:04:14.732,-394756,-442603,-428141,-440966,2,2,2,2
2025-08-21 12:04:14.732,-394765,-442613,-428150,-449165,2,2,2,2
2025-08-21 12:04:14.733,-394779,-426241,-428229,-432798,2,2,2,2
2025-08-21 12:04:14.733,-394851,-426254,-428174,-449221,2,2,2,2
2025-08-21 12:04:14.733,-394792,-426255,-444562,-432870,2,2,2,2
2025-08-21 12:04:14.733,-394853,-426255,-428178,-432873,2,2,2,2
2025-08-21 12:04:14.734,-394861,-426263,-428185,-432883,2,2,2,2
2025-08-21 12:04:14.734,-394877,-426339,-428262,-432894,2,2,2,2
2025-08-21 12:04:14.734,-394877,-426272,-428261,-432895,2,2,2,2
2025-08-21 12:04:14.734,-394812,-426271,-444612,-432890,2,2,2,2
2025-08-21 12:04:14.735,-394814,-426337,-444614,-432890,2,2,2,2
2025-08-21 12:04:14.735,-394890,-442701,-428271,-441093,2,2,2,2
2025-08-21 12:04:14.735,-394898,-426352,-428278,-432906,2,2,2,2
2025-08-21 12:04:14.736,-394911,-426297,-428285,-449337,2,2,2,2
2025-08-21 12:04:14.736,-395003,-426457,-428057,-449331,2,2,2,2
2025-08-21 12:04:14.736,-395006,-426397,-444478,-433015,2,2,2,2
2025-08-21 12:04:14.736,-395008,-426471,-428133,-432960,2,2,2,2
2025-08-21 12:04:14.737,-394998,-426399,-428062,-433016,2,2,2,2
2025-08-21 12:04:14.737,-394978,-426376,-428044,-432996,2,2,2,2
2025-08-21 12:04:14.737,-394978,-426440,-428044,-449348,2,2,2,2
2025-08-21 12:04:14.737,-394991,-426387,-428055,-433009,2,2,2,2
2025-08-21 12:04:14.738,-395004,-426398,-428068,-433023,2,2,2,2
2025-08-21 12:04:14.738,-394999,-442842,-428061,-449404,2,2,2,2
2025-08-21 12:04:14.738,-395006,-426399,-444513,-433027,2,2,2,2
2025-08-21 12:04:14.738,-394764,-426477,-428140,-433105,2,2,2,2
2025-08-21 12:04:14.739,-394768,-426478,-444494,-433043,2,2,2,2
2025-08-21 12:04:14.739,-394764,-426473,-444458,-433034,2,2,2,2
2025-08-21 12:04:14.739,-394771,-442829,-428145,-449421,2,2,2,2
2025-08-21 12:04:14.739,-394763,-426469,-444524,-433032,2,2,2,2
2025-08-21 12:04:14.740,-395008,-426465,-444518,-433024,2,2,2,2
2025-08-21 12:04:14.740,-394756,-426469,-428138,-432959,2,2,2,2
2025-08-21 12:04:14.740,-395006,-426461,-428129,-449402,2,2,2,2
