Timestamp,Ch1,Ch2,Ch3,Ch4,Ch5,Ch6,Ch7,Ch8
2025-09-03 12:59:54.276,-7573610,7402637,7537126,1887328,2,2,2,2
2025-09-03 12:59:54.278,-7573606,7402633,7537145,1887339,2,2,2,2
2025-09-03 12:59:54.281,-7590126,7402504,3342704,1895648,2,2,2,2
2025-09-03 12:59:54.284,-7573486,7402766,7537287,1895650,2,2,2,2
2025-09-03 12:59:54.286,-7573469,7402860,7537349,1895689,2,2,2,2
2025-09-03 12:59:54.289,-7573286,7402979,7537201,1895801,2,2,2,2
2025-09-03 12:59:54.291,-3379185,7402781,7537307,1895680,2,2,2,2
2025-09-03 12:59:54.294,-7589667,7402999,7537259,1895820,2,2,2,2
2025-09-03 12:59:54.297,-7589645,7402769,7537295,1895919,2,2,2,2
2025-09-03 12:59:54.299,-7573279,7403002,7537275,1895907,2,2,2,2
2025-09-03 12:59:54.302,-3379079,7402976,3343204,1895874,2,2,2,2
2025-09-03 12:59:54.305,-7573292,7403021,7537585,1895911,2,2,2,2
2025-09-03 12:59:54.307,-7589595,7403159,7537438,1896048,2,2,2,2
2025-09-03 12:59:54.310,-7573092,7403026,7537554,1887983,2,2,2,2
2025-09-03 12:59:54.313,-3378819,7403246,7537539,1896120,2,2,2,2
2025-09-03 12:59:54.315,-3378795,7403030,7537634,1896186,2,2,2,2
2025-09-03 12:59:54.318,-7573224,3208857,7537705,1896072,2,2,2,2
2025-09-03 12:59:54.320,-7573236,3208859,7537703,3993217,2,2,2,2
2025-09-03 12:59:54.323,-7573117,7403323,7537905,1888007,2,2,2,2
2025-09-03 12:59:54.325,-7572864,7403313,7537904,1888253,2,2,2,2
2025-09-03 12:59:54.328,-7572954,7403271,7537863,1896444,2,2,2,2
2025-09-03 12:59:54.330,-3378590,7403280,3343594,1896437,2,2,2,2
2025-09-03 12:59:54.333,-7572955,3208990,7537910,1896197,2,2,2,2
2025-09-03 12:59:54.336,-3378547,7403473,7538034,1896253,2,2,2,2
2025-09-03 12:59:54.338,-3378534,7403476,3343730,1896396,2,2,2,2
2025-09-03 12:59:54.341,-7572992,7403284,7537892,1896197,2,2,2,2
2025-09-03 12:59:54.344,-7573095,3209195,7537875,3993572,2,2,2,2
2025-09-03 12:59:54.347,-3378570,7403463,7538037,1896317,2,2,2,2
2025-09-03 12:59:54.350,-7572984,3209316,7537929,1896547,2,2,2,2
2025-09-03 12:59:54.352,-7572856,3209449,7538128,1896677,2,2,2,2
2025-09-03 12:59:54.355,-7572775,7403524,7538158,1896701,2,2,2,2
2025-09-03 12:59:54.357,-7572746,7403586,7538194,1896546,2,2,2,2
2025-09-03 12:59:54.360,-3378336,7403738,7538304,1896658,2,2,2,2
2025-09-03 12:59:54.362,-3378404,7403736,7538313,1896669,2,2,2,2
2025-09-03 12:59:54.365,-7588986,7403782,3343875,1896704,2,2,2,2
2025-09-03 12:59:54.367,-7572732,3209615,7538379,3994012,2,2,2,2
2025-09-03 12:59:54.370,-3378286,7403815,7538463,1896751,2,2,2,2
2025-09-03 12:59:54.373,-3394714,7403787,3344137,1896719,2,2,2,2
2025-09-03 12:59:54.377,-3378184,7404001,7538317,1896887,2,2,2,2
2025-09-03 12:59:54.380,-7572628,7403876,7538203,1896810,2,2,2,2
2025-09-03 12:59:54.383,-7588867,7404027,3344122,1896706,2,2,2,2
2025-09-03 12:59:54.386,-7572580,7403967,7538410,1896939,2,2,2,2
2025-09-03 12:59:54.388,-7572461,3209742,7538460,1897063,2,2,2,2
2025-09-03 12:59:54.391,-7572235,7404284,7538689,1896972,2,2,2,2
2025-09-03 12:59:54.393,-7572242,7404046,7538713,1896983,2,2,2,2
2025-09-03 12:59:54.396,-7572262,7404281,7538691,1896969,2,2,2,2
2025-09-03 12:59:54.398,-3377925,7404060,7538785,1896994,2,2,2,2
2025-09-03 12:59:54.401,-3378063,7404263,7538916,1897165,2,2,2,2
2025-09-03 12:59:54.403,-7588814,7404168,3344527,1897101,2,2,2,2
2025-09-03 12:59:54.406,-7588790,7404261,3344626,1897207,2,2,2,2
2025-09-03 12:59:54.409,-7572366,7404273,7538932,1897208,2,2,2,2
2025-09-03 12:59:54.411,-7572450,7404265,7538940,1897204,2,2,2,2
2025-09-03 12:59:54.414,-7572435,3209987,7538702,1897240,2,2,2,2
2025-09-03 12:59:54.417,-3378061,7404302,7538785,1897246,2,2,2,2
2025-09-03 12:59:54.420,-7588860,7404263,7538699,1897213,2,2,2,2
2025-09-03 12:59:54.423,-3378052,7404324,7538808,1897275,2,2,2,2
2025-09-03 12:59:54.425,-3377800,7404333,3344753,1897276,2,2,2,2
2025-09-03 12:59:54.428,-3377899,7404314,7539056,1897331,2,2,2,2
2025-09-03 12:59:54.430,-3377889,7404322,7539070,1897340,2,2,2,2
2025-09-03 12:59:54.433,-7572124,3210084,7539138,3994500,2,2,2,2
2025-09-03 12:59:54.435,-7572127,3210091,7539145,3994505,2,2,2,2
2025-09-03 12:59:54.438,-7572197,7404361,7539067,1897351,2,2,2,2
2025-09-03 12:59:54.440,-7572109,7404723,7539184,1897705,2,2,2,2
2025-09-03 12:59:54.443,-7588347,7404647,3345033,1897533,2,2,2,2
2025-09-03 12:59:54.446,-7571947,7404746,7539435,1897700,2,2,2,2
2025-09-03 12:59:54.449,-7588349,7404669,3345130,1897619,2,2,2,2
2025-09-03 12:59:54.452,-7588378,7404649,7539348,1897609,2,2,2,2
2025-09-03 12:59:54.454,-7571924,7404811,7539316,1897832,2,2,2,2
2025-09-03 12:59:54.457,-7571810,3210625,7539428,1897887,2,2,2,2
2025-09-03 12:59:54.459,-7571812,3210604,7539427,3995024,2,2,2,2
2025-09-03 12:59:54.462,-7571816,7404876,7539614,1897862,2,2,2,2
2025-09-03 12:59:54.464,-7588110,7404958,3345170,1897979,2,2,2,2
2025-09-03 12:59:54.467,-7571700,7405050,7539530,1898005,2,2,2,2
2025-09-03 12:59:54.469,-7571501,7405196,7539714,1898229,2,2,2,2
2025-09-03 12:59:54.472,-3377183,7405281,7539736,1898236,2,2,2,2
2025-09-03 12:59:54.475,-3377251,7405280,7539740,1897985,2,2,2,2
2025-09-03 12:59:54.477,-3377377,7405102,3345382,1898197,2,2,2,2
2025-09-03 12:59:54.480,-7588042,7405195,3345414,1898227,2,2,2,2
2025-09-03 12:59:54.482,-7571468,3210763,7539920,3995254,2,2,2,2
2025-09-03 12:59:54.486,-3393680,7405204,3345428,1898238,2,2,2,2
2025-09-03 12:59:54.489,-7571488,3211029,7539917,1898356,2,2,2,2
2025-09-03 12:59:54.492,-7587988,7405296,3345511,1898257,2,2,2,2
2025-09-03 12:59:54.495,-7571432,3211158,7539996,1898249,2,2,2,2
2025-09-03 12:59:54.499,-7587838,7405450,3345688,1898488,2,2,2,2
2025-09-03 12:59:54.501,-3377055,7405550,7540095,1898602,2,2,2,2
2025-09-03 12:59:54.504,-7571337,3211283,7540191,1898631,2,2,2,2
2025-09-03 12:59:54.506,-7587568,7405821,3346051,1898538,2,2,2,2
2025-09-03 12:59:54.509,-7587712,7405669,3345907,1898720,2,2,2,2
2025-09-03 12:59:54.511,-7571224,3211412,7540260,1898515,2,2,2,2
2025-09-03 12:59:54.514,-7571259,7405694,7540273,1898742,2,2,2,2
2025-09-03 12:59:54.516,-7571432,7405583,7540195,1898636,2,2,2,2
2025-09-03 12:59:54.519,-3377140,7405598,7540198,1898627,2,2,2,2
2025-09-03 12:59:54.522,-3376915,7405566,7540120,1898618,2,2,2,2
2025-09-03 12:59:54.524,-7571214,3211281,7540438,1898624,2,2,2,2
2025-09-03 12:59:54.527,-7587710,7405797,3346028,1898518,2,2,2,2
2025-09-03 12:59:54.530,-3377133,7405620,3345931,1898739,2,2,2,2
2025-09-03 12:59:54.533,-3393510,7405698,3345945,1898740,2,2,2,2
2025-09-03 12:59:54.536,-7571207,3211369,7540227,1898730,2,2,2,2
2025-09-03 12:59:54.539,-3376886,7406028,7540583,1898757,2,2,2,2
2025-09-03 12:59:54.542,-7587483,7406050,3346309,1898790,2,2,2,2
2025-09-03 12:59:54.545,-7587429,7405921,3346178,1898975,2,2,2,2
2025-09-03 12:59:54.548,-7570923,3211753,7540685,3996279,2,2,2,2
2025-09-03 12:59:54.551,-7570829,3211789,7540734,3996317,2,2,2,2
2025-09-03 12:59:54.553,-7587194,7406191,3354650,1899253,2,2,2,2
2025-09-03 12:59:54.556,-7587311,7406331,3346658,1899204,2,2,2,2
2025-09-03 12:59:54.558,-7587137,7406222,3346553,1899285,2,2,2,2
2025-09-03 12:59:54.561,-7570785,7406259,7540863,1899029,2,2,2,2
2025-09-03 12:59:54.564,-7570935,7406088,7540979,1899141,2,2,2,2
2025-09-03 12:59:54.566,-7587196,7406217,3354732,1899259,2,2,2,2
2025-09-03 12:59:54.569,-7570721,7406322,7540964,1899120,2,2,2,2
2025-09-03 12:59:54.572,-7570668,3212145,7541027,1899510,2,2,2,2
2025-09-03 12:59:54.574,-7570493,7406565,7541173,1899369,2,2,2,2
2025-09-03 12:59:54.577,-3376254,7406565,3346840,1899303,2,2,2,2
2025-09-03 12:59:54.579,-7570667,7406460,7541061,1899518,2,2,2,2
2025-09-03 12:59:54.582,-3392741,7406487,3346831,1899292,2,2,2,2
2025-09-03 12:59:54.585,-3392891,7406333,3346671,1899468,2,2,2,2
2025-09-03 12:59:54.587,-7587048,7406561,3346829,1899301,2,2,2,2
2025-09-03 12:59:54.590,-3376275,7406584,3346930,1899579,2,2,2,2
2025-09-03 12:59:54.593,-3392748,7406566,3346912,1899571,2,2,2,2
2025-09-03 12:59:54.596,-3392616,7406448,3346792,1899508,2,2,2,2
2025-09-03 12:59:54.599,-7570462,3212163,7541193,1899533,2,2,2,2
2025-09-03 12:59:54.601,-7586969,7406605,3346959,1899741,2,2,2,2
2025-09-03 12:59:54.604,-7570439,7406790,7541495,1899641,2,2,2,2
2025-09-03 12:59:54.606,-7570230,7406722,7541367,1899778,2,2,2,2
2025-09-03 12:59:54.609,-7570322,7406710,7541353,1899766,2,2,2,2
2025-09-03 12:59:54.612,-7570298,7406735,7541388,1899795,2,2,2,2
2025-09-03 12:59:54.615,-7570428,7406858,7541523,1899933,2,2,2,2
2025-09-03 12:59:54.617,-7570184,3212547,7541515,3997085,2,2,2,2
2025-09-03 12:59:54.620,-7586634,7406817,3355373,1899830,2,2,2,2
2025-09-03 12:59:54.623,-7586821,7406614,3355241,1899767,2,2,2,2
2025-09-03 12:59:54.625,-7570289,3212538,7541517,3997067,2,2,2,2
2025-09-03 12:59:54.628,-7586806,7406968,3355533,1899784,2,2,2,2
2025-09-03 12:59:54.631,-7570199,3212569,7541546,3997163,2,2,2,2
2025-09-03 12:59:54.634,-7569942,3212899,7541821,1900277,2,2,2,2
2025-09-03 12:59:54.636,-3375866,7407312,7541992,1900095,2,2,2,2
2025-09-03 12:59:54.639,-7586558,7407253,7541995,1900131,2,2,2,2
2025-09-03 12:59:54.642,-7586353,7407134,7541883,1900274,2,2,2,2
2025-09-03 12:59:54.645,-7569941,7407233,7541989,1900385,2,2,2,2
2025-09-03 12:59:54.647,-3375642,7407316,3347681,1900317,2,2,2,2
2025-09-03 12:59:54.650,-7569908,3213069,7542039,1900432,2,2,2,2
2025-09-03 12:59:54.653,-3375499,7407412,7542146,1900537,2,2,2,2
2025-09-03 12:59:54.656,-7570029,7407246,7541990,1900319,2,2,2,2
2025-09-03 12:59:54.659,-7570164,3212823,7541819,1900260,2,2,2,2
2025-09-03 12:59:54.662,-7586337,7407344,3347733,1900425,2,2,2,2
2025-09-03 12:59:54.665,-7586343,7407334,7542034,1900412,2,2,2,2
2025-09-03 12:59:54.667,-7569946,3213055,7542061,3997584,2,2,2,2
2025-09-03 12:59:54.670,-7586183,7407515,3355907,1900324,2,2,2,2
2025-09-03 12:59:54.672,-7586204,7407509,3356166,1900583,2,2,2,2
2025-09-03 12:59:54.675,-7569686,7407679,7542406,1900780,2,2,2,2
2025-09-03 12:59:54.677,-7569430,7407717,7542448,1900789,2,2,2,2
2025-09-03 12:59:54.680,-7569644,7407766,7542276,1900653,2,2,2,2
2025-09-03 12:59:54.682,-7569454,3213419,7542489,1900795,2,2,2,2
2025-09-03 12:59:54.685,-7569419,7407759,7542533,1900900,2,2,2,2
2025-09-03 12:59:54.688,-7569605,3213336,7542481,1900786,2,2,2,2
2025-09-03 12:59:54.691,-7569429,7407792,7542531,1900903,2,2,2,2
2025-09-03 12:59:54.694,-3375244,7407654,7542421,1900801,2,2,2,2
2025-09-03 12:59:54.697,-3375203,7407853,7542551,1900924,2,2,2,2
2025-09-03 12:59:54.699,-7569566,3213669,7542751,3998203,2,2,2,2
2025-09-03 12:59:54.702,-7586035,7407971,3356574,1900800,2,2,2,2
2025-09-03 12:59:54.704,-7569531,7408050,7542539,1900902,2,2,2,2
2025-09-03 12:59:54.707,-7569430,7408121,7542658,1900951,2,2,2,2
2025-09-03 12:59:54.709,-7552947,7408011,3356685,1901088,2,2,2,2
2025-09-03 12:59:54.712,-7569252,7408137,7542924,1901207,2,2,2,2
2025-09-03 12:59:54.715,-7569388,7408008,7542806,1901158,2,2,2,2
2025-09-03 12:59:54.717,-7569288,7408120,7542914,1901204,2,2,2,2
2025-09-03 12:59:54.720,-7569379,3213977,7542819,1901172,2,2,2,2
2025-09-03 12:59:54.723,-7569403,3213968,7542812,1901171,2,2,2,2
2025-09-03 12:59:54.726,-3374952,7408166,7543031,1901317,2,2,2,2
2025-09-03 12:59:54.729,-3374948,7408175,7543052,1901316,2,2,2,2
2025-09-03 12:59:54.731,-7569172,7408259,7543090,1901337,2,2,2,2
2025-09-03 12:59:54.734,-3374871,7408331,7543142,1901385,2,2,2,2
2025-09-03 12:59:54.737,-3374859,7408359,7543172,1901443,2,2,2,2
2025-09-03 12:59:54.739,-7569056,3214096,7543281,3998703,2,2,2,2
2025-09-03 12:59:54.742,-7569045,7408496,7543305,1901579,2,2,2,2
2025-09-03 12:59:54.744,-7569027,3214216,7543069,1901408,2,2,2,2
2025-09-03 12:59:54.747,-7552897,7408262,3357038,1901345,2,2,2,2
2025-09-03 12:59:54.750,-3358575,7408367,3348877,1901511,2,2,2,2
2025-09-03 12:59:54.753,-7568932,7408384,7543240,1901471,2,2,2,2
2025-09-03 12:59:54.756,-7569108,7408534,7543421,1901686,2,2,2,2
2025-09-03 12:59:54.758,-3374701,7408641,7543529,1901766,2,2,2,2
2025-09-03 12:59:54.761,-7552519,7408758,3349016,1901587,2,2,2,2
2025-09-03 12:59:54.764,-3358072,7408650,3349224,1901799,2,2,2,2
2025-09-03 12:59:54.767,-3358109,7408873,3349140,1901776,2,2,2,2
2025-09-03 12:59:54.770,-7568756,3214354,7543547,1901813,2,2,2,2
2025-09-03 12:59:54.772,-7552281,7408760,3349345,1901847,2,2,2,2
2025-09-03 12:59:54.775,-7568781,7408903,7543804,1902061,2,2,2,2
2025-09-03 12:59:54.777,-7568695,7409001,7543608,1901846,2,2,2,2
2025-09-03 12:59:54.780,-7568858,3214602,7543797,1902073,2,2,2,2
2025-09-03 12:59:54.783,-7568669,3214723,7543614,1901942,2,2,2,2
2025-09-03 12:59:54.786,-3374345,7409125,7543778,1901964,2,2,2,2
2025-09-03 12:59:54.789,-3374318,7409169,7543812,1902320,2,2,2,2
2025-09-03 12:59:54.791,-7552079,7409035,3349650,1902188,2,2,2,2
2025-09-03 12:59:54.794,-7552023,7409139,3349754,1902233,2,2,2,2
2025-09-03 12:59:54.797,-7568493,7409117,7543964,1902204,2,2,2,2
2025-09-03 12:59:54.801,-3374237,7409210,7543931,1902148,2,2,2,2
2025-09-03 12:59:54.803,-7568623,3214965,7543855,3999247,2,2,2,2
2025-09-03 12:59:54.806,-7568388,3214951,7543849,1902099,2,2,2,2
2025-09-03 12:59:54.808,-7568399,7409208,7543908,1902094,2,2,2,2
2025-09-03 12:59:54.811,-7568416,7409183,7543834,1902094,2,2,2,2
2025-09-03 12:59:54.814,-7568484,7409182,7544093,1902349,2,2,2,2
2025-09-03 12:59:54.817,-7552007,7409288,7544211,1902443,2,2,2,2
2025-09-03 12:59:54.820,-3357544,7409517,3349876,1902362,2,2,2,2
2025-09-03 12:59:54.822,-7568152,7409542,7544210,1902446,2,2,2,2
2025-09-03 12:59:54.825,-7568379,7409634,7544307,1902478,2,2,2,2
2025-09-03 12:59:54.828,-7551972,7409416,3350042,1902587,2,2,2,2
2025-09-03 12:59:54.831,-7568147,3215338,7544328,3999901,2,2,2,2
2025-09-03 12:59:54.834,-7568119,3215364,7544348,3999994,2,2,2,2
2025-09-03 12:59:54.836,-7551874,7409536,3358436,1902646,2,2,2,2
2025-09-03 12:59:54.839,-7551751,7409677,3350113,1902595,2,2,2,2
2025-09-03 12:59:54.841,-7567902,7409902,7544581,1902824,2,2,2,2
2025-09-03 12:59:54.844,-7568104,7409777,7544716,1902955,2,2,2,2
2025-09-03 12:59:54.846,-7567878,3215387,7544634,1902861,2,2,2,2
2025-09-03 12:59:54.849,-7567877,7409773,7544713,1902947,2,2,2,2
2025-09-03 12:59:54.852,-7551502,7409778,3350403,1902883,2,2,2,2
2025-09-03 12:59:54.855,-7551591,7409945,3358583,1902872,2,2,2,2
2025-09-03 12:59:54.857,-7567895,7409995,7544712,1902878,2,2,2,2
2025-09-03 12:59:54.860,-7567867,7410108,7544814,1902989,2,2,2,2
2025-09-03 12:59:54.862,-7567824,7409923,7544898,1903096,2,2,2,2
2025-09-03 12:59:54.865,-7567975,7410032,7544734,1902962,2,2,2,2
2025-09-03 12:59:54.868,-7567738,7409993,7561363,1903208,2,2,2,2
2025-09-03 12:59:54.871,-7567771,7410191,7561342,1903109,2,2,2,2
2025-09-03 12:59:54.874,-7551467,7410194,7544956,1903110,2,2,2,2
2025-09-03 12:59:54.877,-7567622,3215862,7561247,1903342,2,2,2,2
2025-09-03 12:59:54.880,-7567648,7410167,7561242,1903348,2,2,2,2
2025-09-03 12:59:54.882,-7567611,7410194,7561598,1903377,2,2,2,2
2025-09-03 12:59:54.885,-7567654,3216026,7561492,1903349,2,2,2,2
2025-09-03 12:59:54.888,-7567736,3224290,7561485,4000488,2,2,2,2
2025-09-03 12:59:54.891,-7551075,7410428,3367290,1903382,2,2,2,2
2025-09-03 12:59:54.893,-7567605,7410293,7561697,1903488,2,2,2,2
2025-09-03 12:59:54.896,-7567574,7410324,7545091,1903512,2,2,2,2
2025-09-03 12:59:54.898,-7567577,7410327,7545142,1903588,2,2,2,2
2025-09-03 12:59:54.901,-3373186,7410417,7561588,1903414,2,2,2,2
2025-09-03 12:59:54.903,-3373191,7410420,7561591,1903367,2,2,2,2
2025-09-03 12:59:54.906,-7551037,7410543,3359214,1903415,2,2,2,2
2025-09-03 12:59:54.909,-7567493,3224326,7561677,4000530,2,2,2,2
2025-09-03 12:59:54.911,-3373167,7410469,7561715,1903485,2,2,2,2
2025-09-03 12:59:54.914,-7551091,7410534,3351019,1903492,2,2,2,2
2025-09-03 12:59:54.916,-7567590,3216129,7561674,1903384,2,2,2,2
2025-09-03 12:59:54.919,-7551099,7410547,3367415,1903567,2,2,2,2
2025-09-03 12:59:54.921,-7567369,7410637,7561855,1903623,2,2,2,2
2025-09-03 12:59:54.924,-7551096,7410561,3359255,1903832,2,2,2,2
2025-09-03 12:59:54.927,-7567371,7410675,7561856,1903633,2,2,2,2
2025-09-03 12:59:54.930,-7550843,7410826,3359587,1903845,2,2,2,2
2025-09-03 12:59:54.932,-7567247,7410890,7562012,1903852,2,2,2,2
2025-09-03 12:59:54.935,-7550848,7410912,3351402,1904124,2,2,2,2
2025-09-03 12:59:54.939,-3372816,7410955,3367911,1903918,2,2,2,2
2025-09-03 12:59:54.941,-7567126,7410964,7545802,1903988,2,2,2,2
2025-09-03 12:59:54.945,-7550681,7411099,7545985,1904131,2,2,2,2
2025-09-03 12:59:54.948,-7567056,7411176,7545989,1904142,2,2,2,2
2025-09-03 12:59:54.950,-7567154,7410964,7545849,1904009,2,2,2,2
2025-09-03 12:59:54.953,-7566957,7411040,7562247,1904272,2,2,2,2
2025-09-03 12:59:54.956,-3372664,7411223,7562481,1904255,2,2,2,2
2025-09-03 12:59:54.958,-3372561,7411263,7562527,1904351,2,2,2,2
2025-09-03 12:59:54.961,-7566722,3225111,7562734,1904509,2,2,2,2
2025-09-03 12:59:54.964,-7566752,3216904,7562731,1904490,2,2,2,2
2025-09-03 12:59:54.967,-7566893,7411326,7546150,1904367,2,2,2,2
2025-09-03 12:59:54.970,-7566889,3217040,7562544,1904375,2,2,2,2
2025-09-03 12:59:54.973,-3372669,7411396,7562609,1904368,2,2,2,2
2025-09-03 12:59:54.975,-7566834,3216913,7562745,4001666,2,2,2,2
2025-09-03 12:59:54.978,-7550366,7411307,3368199,1904598,2,2,2,2
2025-09-03 12:59:54.980,-7566861,7411205,7562722,1904504,2,2,2,2
2025-09-03 12:59:54.983,-7566646,7411435,7546253,1904412,2,2,2,2
2025-09-03 12:59:54.985,-7566650,7411692,7546551,1904739,2,2,2,2
2025-09-03 12:59:54.988,-3372176,7411671,7562887,1904662,2,2,2,2
2025-09-03 12:59:54.991,-3372130,7411731,3368705,1904845,2,2,2,2
2025-09-03 12:59:54.993,-7566583,7411834,7546742,1904886,2,2,2,2
2025-09-03 12:59:54.996,-7566577,3225729,7563070,1904904,2,2,2,2
2025-09-03 12:59:54.999,-3372131,7411733,3368711,1904841,2,2,2,2
2025-09-03 12:59:55.001,-3372137,7411742,3368734,1904850,2,2,2,2
2025-09-03 12:59:55.004,-7566583,3217563,7563239,1904925,2,2,2,2
2025-09-03 12:59:55.007,-7566478,3225610,7563025,4002188,2,2,2,2
2025-09-03 12:59:55.010,-3372035,7411927,7563234,1904956,2,2,2,2
2025-09-03 12:59:55.013,-7566319,7411956,7546871,1905015,2,2,2,2
2025-09-03 12:59:55.016,-3372055,7411928,7563239,1904910,2,2,2,2
2025-09-03 12:59:55.018,-7549927,7411985,7546910,1905032,2,2,2,2
2025-09-03 12:59:55.021,-7550029,7411847,3360739,1904905,2,2,2,2
2025-09-03 12:59:55.024,-7566345,3225862,7563271,4002169,2,2,2,2
2025-09-03 12:59:55.026,-3371789,7412223,7563276,1905284,2,2,2,2
2025-09-03 12:59:55.029,-7549705,7411974,3352595,1905291,2,2,2,2
2025-09-03 12:59:55.032,-7566083,3225874,7563310,4002530,2,2,2,2
2025-09-03 12:59:55.035,-3355415,7411970,3369067,1905363,2,2,2,2
2025-09-03 12:59:55.038,-7566227,3217814,7563510,1905251,2,2,2,2
2025-09-03 12:59:55.041,-3371788,7412257,7563655,1905398,2,2,2,2
2025-09-03 12:59:55.044,-7566030,7412456,7547151,1905528,2,2,2,2
2025-09-03 12:59:55.047,-7566186,7412243,7563645,1913572,2,2,2,2
2025-09-03 12:59:55.050,-7566051,7412415,7563522,1913629,2,2,2,2
2025-09-03 12:59:55.052,-7565883,7412237,7547255,1905549,2,2,2,2
2025-09-03 12:59:55.055,-7565846,7412359,7547381,1905413,2,2,2,2
2025-09-03 12:59:55.057,-3371650,7412269,3369367,1905628,2,2,2,2
2025-09-03 12:59:55.060,-7549581,7412578,3369617,1905625,2,2,2,2
2025-09-03 12:59:55.063,-7565800,7412490,7563894,1914000,2,2,2,2
2025-09-03 12:59:55.066,-7565722,7412545,7563920,1914086,2,2,2,2
2025-09-03 12:59:55.068,-7565580,7412721,7564136,1913973,2,2,2,2
2025-09-03 12:59:55.071,-7565824,3218444,7564227,1905819,2,2,2,2
2025-09-03 12:59:55.074,-3371383,7412949,7564046,1905951,2,2,2,2
2025-09-03 12:59:55.077,-3371404,7412941,7564036,1905976,2,2,2,2
2025-09-03 12:59:55.080,-3371270,7412761,7564180,1905844,2,2,2,2
2025-09-03 12:59:55.082,-7549377,7412961,7547664,1906024,2,2,2,2
2025-09-03 12:59:55.085,-7549181,7412834,3361763,1906158,2,2,2,2
2025-09-03 12:59:55.087,-7549067,7412965,3361815,1905969,2,2,2,2
2025-09-03 12:59:55.090,-7549153,7412884,3361805,1905949,2,2,2,2
2025-09-03 12:59:55.093,-7548952,7413014,3353757,1906155,2,2,2,2
2025-09-03 12:59:55.096,-7565547,3227107,7564319,4003436,2,2,2,2
2025-09-03 12:59:55.099,-3354867,7413136,3370080,1906223,2,2,2,2
2025-09-03 12:59:55.102,-3354654,7413110,3369986,1906185,2,2,2,2
2025-09-03 12:59:55.105,-7565457,7413006,7564438,1906400,2,2,2,2
2025-09-03 12:59:55.108,-7549117,7412997,3353736,1906327,2,2,2,2
2025-09-03 12:59:55.110,-7548972,7413137,7548183,1906277,2,2,2,2
2025-09-03 12:59:55.114,-7565194,7413327,7564799,1914635,2,2,2,2
2025-09-03 12:59:55.116,-7565276,7413349,7548400,1906426,2,2,2,2
2025-09-03 12:59:55.119,-7565076,7413491,7548287,1906566,2,2,2,2
2025-09-03 12:59:55.121,-3370766,7413489,7564934,1906614,2,2,2,2
2025-09-03 12:59:55.124,-7565077,3227383,7565001,4003736,2,2,2,2
2025-09-03 12:59:55.126,-7565192,3227282,7564841,1906551,2,2,2,2
2025-09-03 12:59:55.129,-7548687,7413523,3362529,1906668,2,2,2,2
2025-09-03 12:59:55.131,-7548858,7413401,3362414,1906481,2,2,2,2
2025-09-03 12:59:55.134,-7565080,7413560,7565045,1914866,2,2,2,2
2025-09-03 12:59:55.136,-7565043,7413627,7564826,1914909,2,2,2,2
2025-09-03 12:59:55.139,-7548428,7413613,3370755,1906706,2,2,2,2
2025-09-03 12:59:55.142,-7564956,7413743,7564933,1906829,2,2,2,2
2025-09-03 12:59:55.145,-7548646,7413661,7548551,1906821,2,2,2,2
2025-09-03 12:59:55.148,-3354262,7413738,3370651,1906911,2,2,2,2
2025-09-03 12:59:55.151,-7564813,3219337,7565108,1906804,2,2,2,2
2025-09-03 12:59:55.154,-7548554,7430171,3370755,1906940,2,2,2,2
2025-09-03 12:59:55.157,-7548659,7430144,3362784,1906908,2,2,2,2
2025-09-03 12:59:55.159,-7548532,7430262,3362656,1906977,2,2,2,2
2025-09-03 12:59:55.162,-7564911,7413960,7565170,1907052,2,2,2,2
2025-09-03 12:59:55.165,-7548359,7430160,3371014,1907190,2,2,2,2
2025-09-03 12:59:55.167,-7548390,7430242,3371022,1906946,2,2,2,2
2025-09-03 12:59:55.170,-7564562,3236085,7549162,1907173,2,2,2,2
2025-09-03 12:59:55.173,-7564554,7414013,7565562,1915382,2,2,2,2
2025-09-03 12:59:55.176,-7564572,3228157,7565556,4004595,2,2,2,2
2025-09-03 12:59:55.179,-7564414,3228137,7565797,1907350,2,2,2,2
2025-09-03 12:59:55.181,-3370112,7430630,7565792,1907342,2,2,2,2
2025-09-03 12:59:55.184,-7564351,7430635,7549383,1907351,2,2,2,2
2025-09-03 12:59:55.187,-7564311,7430682,7549237,1907466,2,2,2,2
2025-09-03 12:59:55.189,-3361919,7430656,7565819,1907407,2,2,2,2
2025-09-03 12:59:55.192,-3370213,7430623,7565799,1907336,2,2,2,2
2025-09-03 12:59:55.194,-7548031,7430687,3371282,1907450,2,2,2,2
2025-09-03 12:59:55.197,-3370110,7430686,7565596,1907458,2,2,2,2
2025-09-03 12:59:55.200,-7548156,7430883,3371493,1907650,2,2,2,2
2025-09-03 12:59:55.203,-7564318,3228291,7565771,1907571,2,2,2,2
2025-09-03 12:59:55.205,-3370128,7430696,7565925,1907504,2,2,2,2
2025-09-03 12:59:55.208,-7564426,3228266,7565878,4004625,2,2,2,2
2025-09-03 12:59:55.210,-7547911,7430896,3371519,1907683,2,2,2,2
2025-09-03 12:59:55.213,-3370230,7430674,7565845,1907708,2,2,2,2
2025-09-03 12:59:55.216,-7564286,7414547,7565847,1907717,2,2,2,2
2025-09-03 12:59:55.219,-7564271,7431023,7549565,1907741,2,2,2,2
2025-09-03 12:59:55.222,-7564286,7431015,7549559,1907742,2,2,2,2
2025-09-03 12:59:55.224,-7564267,7431039,7549569,1907828,2,2,2,2
2025-09-03 12:59:55.227,-7547927,7430935,3371549,1907726,2,2,2,2
2025-09-03 12:59:55.230,-7564162,3236844,7566081,4005019,2,2,2,2
2025-09-03 12:59:55.233,-7547806,7431067,3372015,1907916,2,2,2,2
2025-09-03 12:59:55.235,-7564165,7414781,7566095,1907961,2,2,2,2
2025-09-03 12:59:55.238,-3369879,7431147,7566092,1907914,2,2,2,2
2025-09-03 12:59:55.241,-7564042,7414734,7566323,1907848,2,2,2,2
2025-09-03 12:59:55.244,-7547902,7431065,7549940,1907857,2,2,2,2
2025-09-03 12:59:55.247,-7564039,7431139,7549949,1907866,2,2,2,2
2025-09-03 12:59:55.249,-7564084,7431035,7549848,1907826,2,2,2,2
2025-09-03 12:59:55.252,-3369851,7431226,7566235,1908041,2,2,2,2
2025-09-03 12:59:55.254,-3369602,7431217,7566490,1908036,2,2,2,2
2025-09-03 12:59:55.257,-7547442,7431396,3372046,1908190,2,2,2,2
2025-09-03 12:59:55.259,-7563914,7415159,7566489,1908334,2,2,2,2
2025-09-03 12:59:55.262,-7547516,7431560,3355881,1908351,2,2,2,2
2025-09-03 12:59:55.265,-7564007,3237229,7566540,1908324,2,2,2,2
2025-09-03 12:59:55.268,-3369474,7415063,7566713,1908239,2,2,2,2
2025-09-03 12:59:55.271,-7563804,3228942,7566649,4005378,2,2,2,2
2025-09-03 12:59:55.273,-7563790,3228958,7566809,1908255,2,2,2,2
2025-09-03 12:59:55.276,-7563781,7431542,7550439,1908325,2,2,2,2
2025-09-03 12:59:55.279,-3361266,7431647,3372301,1908436,2,2,2,2
2025-09-03 12:59:55.282,-7547257,7431703,3372412,1908501,2,2,2,2
2025-09-03 12:59:55.285,-7563775,3237520,7566851,1908631,2,2,2,2
2025-09-03 12:59:55.288,-7563550,3237502,7566825,1908593,2,2,2,2
2025-09-03 12:59:55.290,-7563757,3237364,7566633,4005620,2,2,2,2
2025-09-03 12:59:55.296,-3369232,7431897,7566862,1908658,2,2,2,2
2025-09-03 12:59:55.296,-7547200,7431820,3372543,1908694,2,2,2,2
2025-09-03 12:59:55.301,-7547389,7431926,3372651,1908734,2,2,2,2
2025-09-03 12:59:55.301,-7563731,7431711,7550691,1908603,2,2,2,2
2025-09-03 12:59:55.303,-7563475,3237732,7550686,1925235,2,2,2,2
2025-09-03 12:59:55.306,-7547065,7432048,3372703,1925167,2,2,2,2
2025-09-03 12:59:55.310,-3352598,7432194,3372911,1925379,2,2,2,2
2025-09-03 12:59:55.313,-3369086,7432160,7567125,1908941,2,2,2,2
2025-09-03 12:59:55.316,-3360911,7432139,7567116,1908954,2,2,2,2
2025-09-03 12:59:55.319,-7563364,7415820,7567246,1917211,2,2,2,2
2025-09-03 12:59:55.322,-7563253,7415933,7567359,1917324,2,2,2,2
2025-09-03 12:59:55.324,-7563159,7416038,7567466,1925626,2,2,2,2
2025-09-03 12:59:55.327,-7563067,7432213,7551131,1925407,2,2,2,2
2025-09-03 12:59:55.330,-3360540,7432232,7567607,1909112,2,2,2,2
2025-09-03 12:59:55.332,-3360645,7432455,7567502,1909272,2,2,2,2
2025-09-03 12:59:55.335,-7563235,7432431,7551039,1925633,2,2,2,2
2025-09-03 12:59:55.338,-3360656,7432463,3373286,1925666,2,2,2,2
2025-09-03 12:59:55.341,-7563050,3238275,7567630,1925779,2,2,2,2
2025-09-03 12:59:55.344,-3368708,7432686,7567735,1909498,2,2,2,2
2025-09-03 12:59:55.347,-7546432,7432564,7551243,1925776,2,2,2,2
2025-09-03 12:59:55.350,-7562903,7416091,7567869,1925761,2,2,2,2
2025-09-03 12:59:55.352,-7562801,7432844,7551565,1926116,2,2,2,2
2025-09-03 12:59:55.355,-3368326,7432899,7567975,1909697,2,2,2,2
2025-09-03 12:59:55.357,-7562631,3230337,7567914,4023264,2,2,2,2
2025-09-03 12:59:55.360,-7562740,3238500,7567887,4023171,2,2,2,2
2025-09-03 12:59:55.362,-7546466,7432959,3373803,1925910,2,2,2,2
2025-09-03 12:59:55.365,-3368583,7432911,7568009,1909757,2,2,2,2
2025-09-03 12:59:55.368,-7546244,7432863,3373711,1926144,2,2,2,2
2025-09-03 12:59:55.371,-7562604,3230466,7568114,1926250,2,2,2,2
2025-09-03 12:59:55.374,-3360005,7433012,7568228,1909978,2,2,2,2
2025-09-03 12:59:55.377,-7546267,7433187,3373974,1926154,2,2,2,2
2025-09-03 12:59:55.380,-7546222,7433061,3373845,1926346,2,2,2,2
2025-09-03 12:59:55.383,-3368220,7416625,7568239,1909984,2,2,2,2
2025-09-03 12:59:55.385,-3368047,7433259,7568496,1910172,2,2,2,2
2025-09-03 12:59:55.389,-7562250,7433445,7552152,1926418,2,2,2,2
2025-09-03 12:59:55.391,-7562479,7433218,7552248,1926516,2,2,2,2
2025-09-03 12:59:55.394,-7562447,7433245,7552060,1926548,2,2,2,2
2025-09-03 12:59:55.397,-7562267,7433354,7552180,1926407,2,2,2,2
2025-09-03 12:59:55.399,-3359760,7433466,7568632,1910090,2,2,2,2
2025-09-03 12:59:55.402,-3368083,7433275,7568509,1910267,2,2,2,2
2025-09-03 12:59:55.404,-3359903,7433267,7568499,1910254,2,2,2,2
2025-09-03 12:59:55.407,-7562472,3230833,7568438,4023790,2,2,2,2
2025-09-03 12:59:55.410,-7562370,3230876,7568617,4023824,2,2,2,2
2025-09-03 12:59:55.412,-7562490,7433343,7552113,1926647,2,2,2,2
2025-09-03 12:59:55.415,-7562478,7416892,7568525,1910268,2,2,2,2
2025-09-03 12:59:55.417,-7562469,7417049,7568542,1910279,2,2,2,2
2025-09-03 12:59:55.420,-7562338,7417202,7568756,1910431,2,2,2,2
2025-09-03 12:59:55.423,-7545794,7433714,3357955,1926762,2,2,2,2
2025-09-03 12:59:55.426,-7545665,7433588,3358077,1926890,2,2,2,2
2025-09-03 12:59:55.428,-7545827,7433723,7552269,1926768,2,2,2,2
2025-09-03 12:59:55.431,-3359738,7433701,7568882,1910302,2,2,2,2
2025-09-03 12:59:55.434,-7545729,7433568,3374456,1926877,2,2,2,2
2025-09-03 12:59:55.437,-3359519,7433929,3374742,1926916,2,2,2,2
2025-09-03 12:59:55.440,-7562188,3239524,7552573,1927140,2,2,2,2
2025-09-03 12:59:55.442,-3351266,7433739,3374697,1927110,2,2,2,2
2025-09-03 12:59:55.445,-7562015,3239579,7569137,1927011,2,2,2,2
2025-09-03 12:59:55.448,-3367684,7417344,7569001,1910662,2,2,2,2
2025-09-03 12:59:55.451,-7561845,3239582,7569142,4024346,2,2,2,2
2025-09-03 12:59:55.454,-7561837,3239577,7569156,4024416,2,2,2,2
2025-09-03 12:59:55.456,-7561960,3231595,7569362,4024555,2,2,2,2
2025-09-03 12:59:55.459,-3359466,7434032,7569306,1911023,2,2,2,2
2025-09-03 12:59:55.462,-3367551,7434234,7569171,1910900,2,2,2,2
2025-09-03 12:59:55.464,-7545339,7434106,3358701,1927427,2,2,2,2
2025-09-03 12:59:55.467,-3359223,7434182,7569394,1911049,2,2,2,2
2025-09-03 12:59:55.470,-7545283,7434141,3375111,1927467,2,2,2,2
2025-09-03 12:59:55.472,-7545228,7434237,3375218,1927628,2,2,2,2
2025-09-03 12:59:55.475,-7561587,7417894,7569563,1911278,2,2,2,2
2025-09-03 12:59:55.478,-7561626,7417860,7569533,1911176,2,2,2,2
2025-09-03 12:59:55.481,-7545313,7434495,7585904,1927558,2,2,2,2
2025-09-03 12:59:55.483,-7561715,7434486,7585895,1927550,2,2,2,2
2025-09-03 12:59:55.486,-7561712,7418109,7569518,1919371,2,2,2,2
2025-09-03 12:59:55.489,-7545319,7434253,3375232,1927632,2,2,2,2
2025-09-03 12:59:55.492,-3350686,7434525,3375512,1927897,2,2,2,2
2025-09-03 12:59:55.495,-3350644,7434638,3375366,1927699,2,2,2,2
2025-09-03 12:59:55.498,-7561359,3240323,7569908,1927685,2,2,2,2
2025-09-03 12:59:55.501,-7561449,7434604,7586277,1927920,2,2,2,2
2025-09-03 12:59:55.504,-7561230,7434778,7586482,1928085,2,2,2,2
2025-09-03 12:59:55.506,-3367041,7434727,7570027,1911625,2,2,2,2
2025-09-03 12:59:55.509,-7561466,3240310,7569906,4025074,2,2,2,2
2025-09-03 12:59:55.511,-7561237,3240293,7569895,1927909,2,2,2,2
2025-09-03 12:59:55.514,-7544950,7434754,3375755,1928139,2,2,2,2
2025-09-03 12:59:55.516,-7561224,3240559,7570167,1928186,2,2,2,2
2025-09-03 12:59:55.519,-7561242,7418446,7570162,1919983,2,2,2,2
2025-09-03 12:59:55.521,-7561261,7434858,7586551,1928183,2,2,2,2
2025-09-03 12:59:55.524,-7544850,7434895,3375722,1927958,2,2,2,2
2025-09-03 12:59:55.527,-7561254,7434877,7586354,1927943,2,2,2,2
2025-09-03 12:59:55.529,-7561439,7434767,7586493,1928076,2,2,2,2
2025-09-03 12:59:55.532,-7561442,7434764,7586523,1928068,2,2,2,2
2025-09-03 12:59:55.535,-7544845,7434987,3392123,1928054,2,2,2,2
2025-09-03 12:59:55.538,-7544829,7418637,7570408,1911952,2,2,2,2
2025-09-03 12:59:55.541,-3350384,7435231,7570294,1911917,2,2,2,2
2025-09-03 12:59:55.544,-7544682,3240938,7570375,1928319,2,2,2,2
2025-09-03 12:59:55.547,-7544583,7435028,3376116,1928421,2,2,2,2
2025-09-03 12:59:55.550,-7544578,3240732,7570440,1928440,2,2,2,2
2025-09-03 12:59:55.553,-3350293,7435032,7570423,1912014,2,2,2,2
2025-09-03 12:59:55.556,-3350282,7435048,7570436,1912065,2,2,2,2
2025-09-03 12:59:55.558,-3350249,7435220,7570556,1912139,2,2,2,2
2025-09-03 12:59:55.561,-7544538,7435247,7587003,1928576,2,2,2,2
2025-09-03 12:59:55.564,-7544581,3240822,7570452,1928468,2,2,2,2
2025-09-03 12:59:55.567,-7544571,7435399,7586930,1928552,2,2,2,2
2025-09-03 12:59:55.569,-7544516,7435272,7587068,1928681,2,2,2,2
2025-09-03 12:59:55.572,-7544344,7435385,7587122,1928733,2,2,2,2
2025-09-03 12:59:55.575,-3358235,7435469,7570816,1912361,2,2,2,2
2025-09-03 12:59:55.577,-3358355,7435289,3376410,1928703,2,2,2,2
2025-09-03 12:59:55.580,-7544354,3241091,7587267,1928808,2,2,2,2
2025-09-03 12:59:55.583,-7544257,3241322,7570730,1928726,2,2,2,2
2025-09-03 12:59:55.586,-7544300,7435524,7587084,1928948,2,2,2,2
2025-09-03 12:59:55.589,-3350015,7435517,7570690,1912545,2,2,2,2
2025-09-03 12:59:55.592,-7544078,7435527,7587334,1928958,2,2,2,2
2025-09-03 12:59:55.595,-7544101,7435752,7587266,1928854,2,2,2,2
2025-09-03 12:59:55.597,-3357974,7435765,7570937,1912552,2,2,2,2
2025-09-03 12:59:55.600,-3349791,7435754,7571183,1912734,2,2,2,2
2025-09-03 12:59:55.602,-3349729,7435833,7571087,1912655,2,2,2,2
2025-09-03 12:59:55.605,-7544066,3241571,7570996,4026130,2,2,2,2
2025-09-03 12:59:55.607,-7543928,7436016,3376878,1929177,2,2,2,2
2025-09-03 12:59:55.610,-7543814,7435885,7587696,1929244,2,2,2,2
2025-09-03 12:59:55.613,-7544058,7435914,3377030,1929276,2,2,2,2
2025-09-03 12:59:55.616,-7543876,7436135,3393391,1929313,2,2,2,2
2025-09-03 12:59:55.619,-3357571,7436042,3377164,1929472,2,2,2,2
2025-09-03 12:59:55.622,-3349348,7436067,7571583,1913157,2,2,2,2
2025-09-03 12:59:55.625,-7543667,7436135,3377280,1929505,2,2,2,2
2025-09-03 12:59:55.628,-7543591,7436152,7587976,1929579,2,2,2,2
2025-09-03 12:59:55.631,-7543658,7419787,7571607,1913221,2,2,2,2
2025-09-03 12:59:55.634,-7543790,3241993,7571478,4026624,2,2,2,2
2025-09-03 12:59:55.637,-7543696,7419955,7571576,1913198,2,2,2,2
2025-09-03 12:59:55.640,-3349246,7419925,7571734,1913337,2,2,2,2
2025-09-03 12:59:55.642,-3349140,7436343,7571841,1913457,2,2,2,2
2025-09-03 12:59:55.645,-7543550,3242011,7571748,1929748,2,2,2,2
2025-09-03 12:59:55.647,-7543406,7436531,3377410,1929964,2,2,2,2
2025-09-03 12:59:55.650,-3349125,7436445,3377656,1929952,2,2,2,2
2025-09-03 12:59:55.652,-7543550,7436392,7588232,1929842,2,2,2,2
2025-09-03 12:59:55.655,-3357411,7436495,7571944,1913552,2,2,2,2
2025-09-03 12:59:55.657,-3349130,7436544,7571720,1913590,2,2,2,2
2025-09-03 12:59:55.660,-7543546,3242126,7571933,4027017,2,2,2,2
2025-09-03 12:59:55.663,-7543430,3242244,7571746,4026891,2,2,2,2
2025-09-03 12:59:55.665,-7543441,3242229,7571731,1929972,2,2,2,2
2025-09-03 12:59:55.668,-7543301,3242381,7571945,4027024,2,2,2,2
2025-09-03 12:59:55.670,-3349151,7420406,7572074,1913602,2,2,2,2
2025-09-03 12:59:55.673,-7543344,7436660,7588579,1930110,2,2,2,2
2025-09-03 12:59:55.676,-7543265,3242508,7572017,1929990,2,2,2,2
2025-09-03 12:59:55.678,-7543195,3242596,7572166,4027161,2,2,2,2
2025-09-03 12:59:55.681,-7543295,7436799,3377765,1930238,2,2,2,2
2025-09-03 12:59:55.684,-7543412,7436689,3394056,1930130,2,2,2,2
2025-09-03 12:59:55.687,-7543267,3242526,7572178,4027241,2,2,2,2
2025-09-03 12:59:55.689,-7543269,3242525,7572431,1930346,2,2,2,2
2025-09-03 12:59:55.692,-7543148,7420575,7572243,1930228,2,2,2,2
2025-09-03 12:59:55.695,-7543088,7437038,7588664,1930227,2,2,2,2
2025-09-03 12:59:55.697,-3348982,7436860,7572383,1913984,2,2,2,2
2025-09-03 12:59:55.700,-7543153,3242752,7572268,4027394,2,2,2,2
2025-09-03 12:59:55.702,-7543025,7437189,3378167,1930437,2,2,2,2
2025-09-03 12:59:55.705,-7542899,7420684,7572599,1914119,2,2,2,2
2025-09-03 12:59:55.707,-7542789,7420793,7572716,1930624,2,2,2,2
2025-09-03 12:59:55.710,-7543005,7437293,7588933,1930728,2,2,2,2
2025-09-03 12:59:55.713,-3356785,7437090,7572625,1914155,2,2,2,2
2025-09-03 12:59:55.715,-3348578,7437118,7572718,1914251,2,2,2,2
2025-09-03 12:59:55.717,-7542980,7437339,7589008,1930595,2,2,2,2
2025-09-03 12:59:55.720,-3356687,7437534,7572756,1914345,2,2,2,2
2025-09-03 12:59:55.723,-7542783,7437555,7589158,1930747,2,2,2,2
2025-09-03 12:59:55.726,-7542915,3243118,7572712,1930632,2,2,2,2
2025-09-03 12:59:55.730,-3356673,7437548,3378554,1930752,2,2,2,2
2025-09-03 12:59:55.733,-7542755,7437336,3378659,1930804,2,2,2,2
2025-09-03 12:59:55.735,-3348599,7437455,3378456,1930739,2,2,2,2
2025-09-03 12:59:55.739,-7542664,3243149,7572752,4028136,2,2,2,2
2025-09-03 12:59:55.741,-3348349,7437788,7573011,1914627,2,2,2,2
2025-09-03 12:59:55.744,-7542757,3243380,7572990,4028058,2,2,2,2
2025-09-03 12:59:55.746,-7542537,7437582,3378587,1930805,2,2,2,2
2025-09-03 12:59:55.749,-7542551,3243280,7572945,4028009,2,2,2,2
2025-09-03 12:59:55.752,-7542580,7437592,3378844,1931068,2,2,2,2
2025-09-03 12:59:55.755,-7542397,7437806,3378824,1931024,2,2,2,2
2025-09-03 12:59:55.758,-7542526,7437703,7589435,1931234,2,2,2,2
2025-09-03 12:59:55.761,-7542555,7437684,7589380,1931159,2,2,2,2
2025-09-03 12:59:55.763,-7542497,7437811,7589511,1931035,2,2,2,2
2025-09-03 12:59:55.766,-3356387,7437814,7573129,1914635,2,2,2,2
2025-09-03 12:59:55.769,-7542549,7437694,7589402,1931166,2,2,2,2
2025-09-03 12:59:55.771,-3356265,7437887,3378972,1931235,2,2,2,2
2025-09-03 12:59:55.774,-7542330,3243640,7573276,1931416,2,2,2,2
2025-09-03 12:59:55.777,-3347980,7421661,7573385,1915128,2,2,2,2
2025-09-03 12:59:55.780,-7542498,3243619,7573248,1931395,2,2,2,2
2025-09-03 12:59:55.783,-3347969,7437841,7573492,1914953,2,2,2,2
2025-09-03 12:59:55.786,-7542493,7437949,7589691,1931413,2,2,2,2
2025-09-03 12:59:55.789,-7542255,7421804,7573505,1931399,2,2,2,2
2025-09-03 12:59:55.792,-7542381,7438058,3379086,1931277,2,2,2,2
2025-09-03 12:59:55.794,-7542278,7438109,3379211,1931474,2,2,2,2
2025-09-03 12:59:55.797,-7542169,7421850,7573637,1931517,2,2,2,2
2025-09-03 12:59:55.799,-7542217,7438309,7590064,1931537,2,2,2,2
2025-09-03 12:59:55.802,-3356042,7438312,7573655,1915197,2,2,2,2
2025-09-03 12:59:55.805,-7542032,3243889,7573547,4028831,2,2,2,2
2025-09-03 12:59:55.807,-3356006,7438374,7573782,1915345,2,2,2,2
2025-09-03 12:59:55.810,-7541961,7438579,3395999,1931877,2,2,2,2
2025-09-03 12:59:55.813,-7541807,7438444,3395864,1931928,2,2,2,2
2025-09-03 12:59:55.816,-7541963,7438345,7590148,1931900,2,2,2,2
2025-09-03 12:59:55.818,-7541801,7438474,7590280,1932020,2,2,2,2
2025-09-03 12:59:55.821,-7541784,7454951,7573915,1915409,2,2,2,2
2025-09-03 12:59:55.824,-7541894,7454846,7573870,1932013,2,2,2,2
2025-09-03 12:59:55.826,-3347555,7438564,3379610,1931803,2,2,2,2
2025-09-03 12:59:55.829,-7542005,7438362,7590164,1931918,2,2,2,2
2025-09-03 12:59:55.831,-7541791,7438580,7590388,1931884,2,2,2,2
2025-09-03 12:59:55.834,-3347686,7438650,7574131,1915593,2,2,2,2
2025-09-03 12:59:55.837,-3347486,7438603,7574026,1915524,2,2,2,2
2025-09-03 12:59:55.839,-7541862,3244300,7574025,1932162,2,2,2,2
2025-09-03 12:59:55.841,-7541909,7455166,7574248,1915746,2,2,2,2
2025-09-03 12:59:55.844,-7541741,7455164,7574241,1932053,2,2,2,2
2025-09-03 12:59:55.846,-7541567,7438858,7590669,1932166,2,2,2,2
2025-09-03 12:59:55.849,-7541730,7455216,7574256,1915758,2,2,2,2
2025-09-03 12:59:55.852,-7541641,7438863,3396372,1932428,2,2,2,2
2025-09-03 12:59:55.855,-7541696,7438871,3388166,1932343,2,2,2,2
2025-09-03 12:59:55.858,-3347319,7439041,3380095,1932531,2,2,2,2
2025-09-03 12:59:55.861,-7541568,3244672,7574331,1932512,2,2,2,2
2025-09-03 12:59:55.865,-7541647,7438962,3388269,1932507,2,2,2,2
2025-09-03 12:59:55.867,-7541748,7438869,7590680,1932410,2,2,2,2
2025-09-03 12:59:55.870,-7541744,7455330,7574380,1932437,2,2,2,2
2025-09-03 12:59:55.873,-7541725,7438968,7590781,1932521,2,2,2,2
2025-09-03 12:59:55.876,-7541543,7439093,7590917,1932389,2,2,2,2
2025-09-03 12:59:55.879,-7541603,7455503,7574557,1932408,2,2,2,2
2025-09-03 12:59:55.881,-7541494,7439234,3380361,1932521,2,2,2,2
2025-09-03 12:59:55.884,-7541532,7439127,7590975,1932426,2,2,2,2
2025-09-03 12:59:55.886,-7541503,7439239,7591051,1932533,2,2,2,2
2025-09-03 12:59:55.889,-7541485,3244950,7574765,4029702,2,2,2,2
2025-09-03 12:59:55.891,-3347065,7439125,7574642,1916294,2,2,2,2
2025-09-03 12:59:55.894,-7541361,7455526,7574653,1916308,2,2,2,2
2025-09-03 12:59:55.896,-7541386,7439117,3388522,1932751,2,2,2,2
2025-09-03 12:59:55.899,-7541286,7439222,7591092,1932778,2,2,2,2
2025-09-03 12:59:55.902,-7541499,7439341,7591191,1932652,2,2,2,2
2025-09-03 12:59:55.904,-7541260,7455966,7575032,1916442,2,2,2,2
2025-09-03 12:59:55.907,-3346717,7439576,7575035,1916473,2,2,2,2
2025-09-03 12:59:55.910,-3346842,7439388,7574927,1916641,2,2,2,2
2025-09-03 12:59:55.913,-3347042,7439584,3380734,1932822,2,2,2,2
2025-09-03 12:59:55.916,-7541235,3245079,7574982,1932930,2,2,2,2
2025-09-03 12:59:55.919,-7541038,7439516,7591437,1932823,2,2,2,2
2025-09-03 12:59:55.921,-3346715,7439612,3380843,1932994,2,2,2,2
2025-09-03 12:59:55.924,-3346914,7439674,7575289,1916684,2,2,2,2
2025-09-03 12:59:55.926,-3355030,7439826,7575041,1916703,2,2,2,2
2025-09-03 12:59:55.929,-7541102,3245325,7575100,4030349,2,2,2,2
2025-09-03 12:59:55.931,-7541238,3245442,7575053,4030235,2,2,2,2
2025-09-03 12:59:55.934,-7540842,7456304,7575442,1933289,2,2,2,2
2025-09-03 12:59:55.937,-7540856,7456259,7575430,1916816,2,2,2,2
2025-09-03 12:59:55.940,-7540940,7439844,3397401,1933099,2,2,2,2
2025-09-03 12:59:55.942,-7540853,7439975,3389426,1933308,2,2,2,2
2025-09-03 12:59:55.945,-3346565,7439892,3381224,1933295,2,2,2,2
2025-09-03 12:59:55.949,-7540969,7456505,7575423,1949841,2,2,2,2
2025-09-03 12:59:55.952,-3346541,7440065,7575561,1949720,2,2,2,2
2025-09-03 12:59:55.954,-7540697,7440226,7592092,1933544,2,2,2,2
2025-09-03 12:59:55.957,-3354759,7439933,3381239,1933332,2,2,2,2
2025-09-03 12:59:55.960,-7540783,7440019,7592000,1933421,2,2,2,2
2025-09-03 12:59:55.963,-7540788,7440023,7592042,1933426,2,2,2,2
2025-09-03 12:59:55.965,-3346453,7440122,7575687,1949836,2,2,2,2
2025-09-03 12:59:55.968,-7540851,3245799,7575599,4030588,2,2,2,2
2025-09-03 12:59:55.970,-3346318,7440335,7575656,1950023,2,2,2,2
2025-09-03 12:59:55.973,-7540493,3245855,7575788,1933806,2,2,2,2
2025-09-03 12:59:55.976,-7540507,3245842,7575795,4030955,2,2,2,2
2025-09-03 12:59:55.978,-7540723,3245945,7575830,1933586,2,2,2,2
2025-09-03 12:59:55.981,-7540484,7440495,3389714,1933834,2,2,2,2
2025-09-03 12:59:55.983,-7540599,7440397,3389934,1933803,2,2,2,2
2025-09-03 12:59:55.986,-7540620,7456758,7575956,1933718,2,2,2,2
2025-09-03 12:59:55.988,-7540599,7456781,7576061,1933814,2,2,2,2
2025-09-03 12:59:55.991,-3346156,7440620,7575957,1950348,2,2,2,2
2025-09-03 12:59:55.993,-3346191,7440601,7575931,1950260,2,2,2,2
2025-09-03 12:59:55.996,-7540639,3246084,7576057,4030955,2,2,2,2
2025-09-03 12:59:55.998,-7540614,3246186,7575829,4030981,2,2,2,2
2025-09-03 12:59:56.001,-7540723,7456774,7576053,1933793,2,2,2,2
2025-09-03 12:59:56.004,-7540618,7440512,3381613,1933857,2,2,2,2
2025-09-03 12:59:56.007,-7540663,7440506,3397989,1933849,2,2,2,2
2025-09-03 12:59:56.009,-7540600,7456998,7575959,1950336,2,2,2,2
2025-09-03 12:59:56.012,-3346148,7440695,3381858,1934092,2,2,2,2
2025-09-03 12:59:56.016,-7540242,7457081,7576317,1934053,2,2,2,2
2025-09-03 12:59:56.018,-3345914,7440699,7576437,1950560,2,2,2,2
2025-09-03 12:59:56.021,-7540118,7457206,7576463,1950596,2,2,2,2
2025-09-03 12:59:56.024,-7540176,7440780,3398525,1934184,2,2,2,2
2025-09-03 12:59:56.027,-7540180,7440885,3398638,1934215,2,2,2,2
2025-09-03 12:59:56.029,-7540024,7440926,7592722,1934332,2,2,2,2
2025-09-03 12:59:56.032,-7540077,3246620,7576358,1934345,2,2,2,2
2025-09-03 12:59:56.035,-7540217,7441139,3382258,1934543,2,2,2,2
2025-09-03 12:59:56.039,-7540078,3246724,7576783,1934438,2,2,2,2
2025-09-03 12:59:56.042,-7540020,7441018,3398794,1934443,2,2,2,2
2025-09-03 12:59:56.044,-7540171,7441005,7593090,1934360,2,2,2,2
2025-09-03 12:59:56.047,-7539992,7441144,7593201,1934492,2,2,2,2
2025-09-03 12:59:56.050,-3345634,7441200,7576944,1950991,2,2,2,2
2025-09-03 12:59:56.052,-7539713,7441169,7593280,1934847,2,2,2,2
2025-09-03 12:59:56.055,-7539731,3246852,7576841,4031979,2,2,2,2
2025-09-03 12:59:56.057,-3345660,7441168,7576933,1951223,2,2,2,2
2025-09-03 12:59:56.060,-7539823,7441402,3382535,1934817,2,2,2,2
2025-09-03 12:59:56.063,-7539841,7441397,3390723,1934810,2,2,2,2
2025-09-03 12:59:56.065,-3345439,7441435,7576948,1951237,2,2,2,2
2025-09-03 12:59:56.068,-7539712,7457935,7577058,1934957,2,2,2,2
2025-09-03 12:59:56.070,-7539681,7441637,3390982,1935049,2,2,2,2
2025-09-03 12:59:56.073,-7539689,7441565,7593483,1934983,2,2,2,2
2025-09-03 12:59:56.075,-7539488,7441526,7593651,1934878,2,2,2,2
2025-09-03 12:59:56.078,-3345267,7441453,7577224,1951242,2,2,2,2
2025-09-03 12:59:56.080,-3345403,7441658,7577093,1951369,2,2,2,2
2025-09-03 12:59:56.083,-7539644,7441679,3391079,1935081,2,2,2,2
2025-09-03 12:59:56.086,-7539583,7441791,3391115,1935120,2,2,2,2
2025-09-03 12:59:56.088,-7539459,7441660,3391074,1935081,2,2,2,2
2025-09-03 12:59:56.091,-7539515,7441904,3391246,1935310,2,2,2,2
2025-09-03 12:59:56.093,-7539466,7441675,3391347,1935343,2,2,2,2
2025-09-03 12:59:56.096,-7539330,7458181,7577596,1951607,2,2,2,2
2025-09-03 12:59:56.099,-7539382,7442063,3399666,1935413,2,2,2,2
2025-09-03 12:59:56.102,-7539192,7442023,3399829,1935370,2,2,2,2
2025-09-03 12:59:56.105,-7539093,7458517,7594237,1951860,2,2,2,2
2025-09-03 12:59:56.108,-7539147,7442075,7593993,1935497,2,2,2,2
2025-09-03 12:59:56.111,-3344908,7441971,7594209,1951770,2,2,2,2
2025-09-03 12:59:56.114,-7539164,7442145,7594009,1935501,2,2,2,2
2025-09-03 12:59:56.117,-3344784,7442178,7594103,1951943,2,2,2,2
2025-09-03 12:59:56.119,-7538959,3248011,7594240,4032872,2,2,2,2
2025-09-03 12:59:56.122,-7539012,7442302,3391739,1935647,2,2,2,2
2025-09-03 12:59:56.124,-7538972,7458692,7594236,1935728,2,2,2,2
2025-09-03 12:59:56.127,-7539191,7442430,7594295,1935846,2,2,2,2
2025-09-03 12:59:56.129,-7539163,7442284,7594183,1935641,2,2,2,2
2025-09-03 12:59:56.132,-3344745,7442400,7594337,1952134,2,2,2,2
2025-09-03 12:59:56.134,-7539084,3247998,7594487,1935645,2,2,2,2
2025-09-03 12:59:56.137,-7538956,3256329,7594434,4033008,2,2,2,2
2025-09-03 12:59:56.139,-7538806,7442661,3392107,1936075,2,2,2,2
2025-09-03 12:59:56.142,-7538936,7458874,7594726,1952267,2,2,2,2
2025-09-03 12:59:56.144,-7538786,7458825,7594640,1936127,2,2,2,2
2025-09-03 12:59:56.147,-7538808,7459063,7594626,1936107,2,2,2,2
2025-09-03 12:59:56.149,-7538827,7442664,3400309,1936099,2,2,2,2
2025-09-03 12:59:56.152,-7538704,7442537,3392253,1935908,2,2,2,2
2025-09-03 12:59:56.155,-7538707,7458939,7594506,1935980,2,2,2,2
2025-09-03 12:59:56.157,-7538817,7442698,3400334,1936124,2,2,2,2
2025-09-03 12:59:56.160,-7538890,7442691,7594635,1936112,2,2,2,2
2025-09-03 12:59:56.162,-7538693,7442838,7594828,1936263,2,2,2,2
2025-09-03 12:59:56.165,-7538552,3256677,7595002,4033303,2,2,2,2
2025-09-03 12:59:56.167,-3344155,7442899,7594782,1952632,2,2,2,2
2025-09-03 12:59:56.170,-7538657,7459332,7594900,1952751,2,2,2,2
2025-09-03 12:59:56.173,-7538643,3248652,7594981,1936386,2,2,2,2
2025-09-03 12:59:56.175,-3344254,7442988,7595017,1952796,2,2,2,2
2025-09-03 12:59:56.178,-7538533,7443094,3400821,1936590,2,2,2,2
2025-09-03 12:59:56.181,-7538460,7443094,3392645,1936606,2,2,2,2
2025-09-03 12:59:56.183,-7538332,3256934,7595020,4033635,2,2,2,2
2025-09-03 12:59:56.186,-7538305,7443091,3400801,1936588,2,2,2,2
2025-09-03 12:59:56.188,-7538314,7443084,3400805,1936576,2,2,2,2
2025-09-03 12:59:56.191,-7538191,7459591,7595254,1936637,2,2,2,2
2025-09-03 12:59:56.194,-7538398,7443077,7595082,1936515,2,2,2,2
2025-09-03 12:59:56.196,-7538369,7443178,7595154,1936613,2,2,2,2
2025-09-03 12:59:56.199,-3344029,7443144,7595128,1952900,2,2,2,2
2025-09-03 12:59:56.201,-7538186,3257190,7595274,4033822,2,2,2,2
2025-09-03 12:59:56.204,-7538295,3248890,7595254,1936634,2,2,2,2
2025-09-03 12:59:56.217,-7538407,7443357,3401097,1936856,2,2,2,2
2025-09-03 12:59:56.217,-7538171,7459721,7595393,1936777,2,2,2,2
2025-09-03 12:59:56.217,-7538176,7443338,7595391,1936782,2,2,2,2
2025-09-03 12:59:56.217,-7538227,7443296,7595322,1936739,2,2,2,2
2025-09-03 12:59:56.217,-7538208,7443335,7595322,1936784,2,2,2,2
2025-09-03 12:59:56.219,-7538071,7459860,7595528,1953304,2,2,2,2
2025-09-03 12:59:56.223,-7538043,7443569,3401331,1937022,2,2,2,2
2025-09-03 12:59:56.226,-7537952,7443607,7595700,1937130,2,2,2,2
2025-09-03 12:59:56.228,-3343721,7443657,7595662,1953462,2,2,2,2
2025-09-03 12:59:56.231,-3343724,7443667,7595668,1953469,2,2,2,2
2025-09-03 12:59:56.233,-7537997,7443614,3401441,1937133,2,2,2,2
2025-09-03 12:59:56.236,-7537849,7443830,3401598,1937280,2,2,2,2
2025-09-03 12:59:56.239,-3343497,7443930,3401631,1937387,2,2,2,2
2025-09-03 12:59:56.242,-7537714,7443958,7596031,1937168,2,2,2,2
2025-09-03 12:59:56.244,-3343488,7443949,7596029,1953546,2,2,2,2
2025-09-03 12:59:56.247,-7537921,3257731,7595971,4034441,2,2,2,2
2025-09-03 12:59:56.249,-3343466,7443744,3401573,1953577,2,2,2,2
2025-09-03 12:59:56.252,-7537904,7443859,7596001,1937382,2,2,2,2
2025-09-03 12:59:56.256,-7537652,7460573,7596265,1954032,2,2,2,2
2025-09-03 12:59:56.259,-3343219,7444002,3401842,1937463,2,2,2,2
2025-09-03 12:59:56.262,-3343263,7444211,3401743,1937425,2,2,2,2
2025-09-03 12:59:56.264,-7537471,3249764,7596235,1937541,2,2,2,2
2025-09-03 12:59:56.267,-3343240,7444003,3401850,1953851,2,2,2,2
2025-09-03 12:59:56.270,-7537459,7444343,7596509,1937810,2,2,2,2
2025-09-03 12:59:56.273,-7537659,3249924,7596321,1937683,2,2,2,2
2025-09-03 12:59:56.276,-3343342,7444252,7596410,1954165,2,2,2,2
2025-09-03 12:59:56.279,-7537647,3250025,7596491,1937792,2,2,2,2
2025-09-03 12:59:56.282,-3343207,7444467,3402000,1937681,2,2,2,2
2025-09-03 12:59:56.289,-7537530,7444456,3401998,1937676,2,2,2,2
2025-09-03 12:59:56.289,-7537633,7444360,3394046,1937902,2,2,2,2
2025-09-03 12:59:56.290,-7537553,7460546,7596314,1945862,2,2,2,2
2025-09-03 12:59:56.293,-7537413,7444343,3402213,1937881,2,2,2,2
2025-09-03 12:59:56.295,-7537512,7444243,3402106,1937723,2,2,2,2
2025-09-03 12:59:56.298,-7537201,7444505,7596661,1938035,2,2,2,2
2025-09-03 12:59:56.300,-7537375,7444473,7596597,1937932,2,2,2,2
2025-09-03 12:59:56.303,-7537255,3258465,7596754,4035215,2,2,2,2
2025-09-03 12:59:56.306,-7537302,3258368,7596591,1938020,2,2,2,2
2025-09-03 12:59:56.309,-3342954,7444535,3402470,1938131,2,2,2,2
2025-09-03 12:59:56.312,-7537295,7444504,3402376,1937977,2,2,2,2
2025-09-03 12:59:56.314,-3342946,7444620,3402243,1938172,2,2,2,2
2025-09-03 12:59:56.317,-7537416,7444474,7596614,1937948,2,2,2,2
2025-09-03 12:59:56.319,-3342985,7444542,7596783,1954531,2,2,2,2
2025-09-03 12:59:56.322,-7537369,7444595,7596772,1938149,2,2,2,2
2025-09-03 12:59:56.325,-7537377,7444599,3402470,1938139,2,2,2,2
2025-09-03 12:59:56.328,-3342859,7444496,7596682,1954427,2,2,2,2
2025-09-03 12:59:56.331,-3342946,7444748,7596929,1954676,2,2,2,2
2025-09-03 12:59:56.334,-3342832,7444934,7597053,1954767,2,2,2,2
2025-09-03 12:59:56.336,-7537174,3258650,7597020,4035475,2,2,2,2
2025-09-03 12:59:56.339,-7537040,3250657,7596843,4035353,2,2,2,2
2025-09-03 12:59:56.341,-7537042,7461357,7597162,1954837,2,2,2,2
2025-09-03 12:59:56.344,-7537096,7444892,3394587,1938441,2,2,2,2
2025-09-03 12:59:56.347,-7537040,7444980,3394683,1938467,2,2,2,2
2025-09-03 12:59:56.349,-7536995,7461236,7597049,1954791,2,2,2,2
2025-09-03 12:59:56.352,-7537014,7445097,3403006,1938656,2,2,2,2
2025-09-03 12:59:56.355,-3342694,7445188,7597071,1955070,2,2,2,2
2025-09-03 12:59:56.358,-3342617,7445217,3402850,1938453,2,2,2,2
2025-09-03 12:59:56.361,-7536902,7445238,7597184,1938539,2,2,2,2
2025-09-03 12:59:56.364,-3342623,7445235,7597172,1954846,2,2,2,2
2025-09-03 12:59:56.367,-7536670,3250928,7597375,1938791,2,2,2,2
2025-09-03 12:59:56.370,-7536893,7445261,3403162,1938820,2,2,2,2
2025-09-03 12:59:56.372,-7536667,3259131,7597375,4035955,2,2,2,2
2025-09-03 12:59:56.375,-7536840,7445368,3394821,1938923,2,2,2,2
2025-09-03 12:59:56.377,-7536884,7445351,3403011,1938921,2,2,2,2
2025-09-03 12:59:56.380,-7536888,7461703,7597559,1947114,2,2,2,2
2025-09-03 12:59:56.382,-7536842,7445486,7597438,1938790,2,2,2,2
2025-09-03 12:59:56.385,-3342363,7445284,7597547,1955288,2,2,2,2
2025-09-03 12:59:56.387,-3407718,7445523,7597802,1955510,2,2,2,2
2025-09-03 12:59:56.390,-7602142,7445404,3403391,1939040,2,2,2,2
2025-09-03 12:59:56.393,-3407771,7445491,3403396,1938988,2,2,2,2
2025-09-03 12:59:56.396,-7536673,7445354,7597572,1938935,2,2,2,2
2025-09-03 12:59:56.399,-3342439,7445301,7597582,1955333,2,2,2,2
2025-09-03 12:59:56.401,-3407767,7445521,7597796,1955508,2,2,2,2
2025-09-03 12:59:56.404,-7602167,7462140,7597718,1955448,2,2,2,2
2025-09-03 12:59:56.407,-7602021,7445731,3395447,1939235,2,2,2,2
2025-09-03 12:59:56.409,-3407468,7445966,7597944,1955604,2,2,2,2
2025-09-03 12:59:56.412,-7601689,7462343,7597967,1947495,2,2,2,2
2025-09-03 12:59:56.414,-7601713,7446007,3395554,1939256,2,2,2,2
2025-09-03 12:59:56.417,-7601712,7445913,7598202,1939484,2,2,2,2
2025-09-03 12:59:56.419,-7601639,7446135,7598137,1939701,2,2,2,2
2025-09-03 12:59:56.422,-7601793,3259800,7598285,1939555,2,2,2,2
2025-09-03 12:59:56.425,-3407391,7445765,3403774,1955798,2,2,2,2
2025-09-03 12:59:56.427,-7601905,7445885,7598157,1939466,2,2,2,2
2025-09-03 12:59:56.430,-7601673,3251562,7598103,1939447,2,2,2,2
2025-09-03 12:59:56.433,-3407520,7445915,3403928,1939503,2,2,2,2
2025-09-03 12:59:56.436,-7601651,7446165,3403918,1939493,2,2,2,2
2025-09-03 12:59:56.439,-7601672,7446159,3403907,1939494,2,2,2,2
2025-09-03 12:59:56.441,-7601514,3251829,7598387,4036880,2,2,2,2
2025-09-03 12:59:56.444,-7601664,7446241,3404191,1939756,2,2,2,2
2025-09-03 12:59:56.447,-7601547,7446291,3404059,1939938,2,2,2,2
2025-09-03 12:59:56.450,-7601411,3260384,7598576,4036990,2,2,2,2
2025-09-03 12:59:56.453,-7601303,3260191,7598623,1939952,2,2,2,2
2025-09-03 12:59:56.455,-3407104,7446527,3404292,1940180,2,2,2,2
2025-09-03 12:59:56.458,-7601397,3268628,7598615,1940203,2,2,2,2
2025-09-03 12:59:56.461,-3406985,7463048,3404429,1939998,2,2,2,2
2025-09-03 12:59:56.465,-7601348,7463148,7598819,1940085,2,2,2,2
2025-09-03 12:59:56.468,-7601168,7462940,3404640,1940217,2,2,2,2
2025-09-03 12:59:56.471,-3406877,7462934,3404572,1940210,2,2,2,2
2025-09-03 12:59:56.474,-7601154,3268737,7598907,1940241,2,2,2,2
2025-09-03 12:59:56.476,-7601122,7463138,3404776,1940416,2,2,2,2
2025-09-03 12:59:56.479,-7601178,7463045,7598976,1948430,2,2,2,2
2025-09-03 12:59:56.481,-7601141,7463143,7599045,1940342,2,2,2,2
2025-09-03 12:59:56.484,-7601109,7463179,7598897,1940451,2,2,2,2
2025-09-03 12:59:56.486,-7601017,7463280,7598979,1948422,2,2,2,2
2025-09-03 12:59:56.489,-3406724,7463209,3404920,1940487,2,2,2,2
2025-09-03 12:59:56.492,-7600897,7463421,3404813,1940377,2,2,2,2
2025-09-03 12:59:56.495,-3406737,7463197,7599224,1956860,2,2,2,2
2025-09-03 12:59:56.498,-7601136,7463181,7599208,1940457,2,2,2,2
2025-09-03 12:59:56.501,-7601039,3268975,7599312,1940493,2,2,2,2
2025-09-03 12:59:56.504,-3406594,7463427,7599214,1957109,2,2,2,2
2025-09-03 12:59:56.507,-7600999,7463408,7599114,1948815,2,2,2,2
2025-09-03 12:59:56.510,-7600905,7463443,3404919,1940728,2,2,2,2
2025-09-03 12:59:56.512,-7600840,7463566,3405034,1940528,2,2,2,2
2025-09-03 12:59:56.515,-7600881,7463573,7599347,1940592,2,2,2,2
2025-09-03 12:59:56.518,-7601037,7463416,3404822,1940700,2,2,2,2
2025-09-03 12:59:56.521,-7600893,7463557,3405031,1940516,2,2,2,2
2025-09-03 12:59:56.523,-7600917,3261049,7599323,1940502,2,2,2,2
2025-09-03 12:59:56.526,-7600840,7463653,3405065,1940608,2,2,2,2
2025-09-03 12:59:56.529,-7600762,7463459,7599496,1957126,2,2,2,2
2025-09-03 12:59:56.531,-7600664,7463566,7599596,1949037,2,2,2,2
2025-09-03 12:59:56.534,-7600494,7463804,7599843,1957402,2,2,2,2
2025-09-03 12:59:56.537,-7600519,7464044,3405468,1941003,2,2,2,2
2025-09-03 12:59:56.540,-7600594,7463787,7599845,1941009,2,2,2,2
2025-09-03 12:59:56.544,-3406343,7463928,3405428,1940950,2,2,2,2
2025-09-03 12:59:56.545,-7600643,7463682,7599743,1940963,2,2,2,2
2025-09-03 12:59:56.548,-7600422,7463919,7599719,1941126,2,2,2,2
2025-09-03 12:59:56.551,-7600402,7463942,7599739,1941220,2,2,2,2
2025-09-03 12:59:56.553,-7600390,7464042,7599809,1941247,2,2,2,2
2025-09-03 12:59:56.556,-7600419,7463932,7599737,1941150,2,2,2,2
2025-09-03 12:59:56.558,-7600512,3261673,7599910,4038285,2,2,2,2
2025-09-03 12:59:56.561,-7600354,3269770,7599876,4038513,2,2,2,2
2025-09-03 12:59:56.564,-7600267,3261680,7599915,4038557,2,2,2,2
2025-09-03 12:59:56.566,-3405923,7464218,7600017,1957641,2,2,2,2
2025-09-03 12:59:56.569,-7600134,3270020,7600121,4038520,2,2,2,2
2025-09-03 12:59:56.571,-7600136,7464333,3405826,1941288,2,2,2,2
2025-09-03 12:59:56.577,-7600371,7464396,7600238,1949591,2,2,2,2
2025-09-03 12:59:56.577,-7600180,7464310,7600126,1941344,2,2,2,2
2025-09-03 12:59:56.579,-7600287,7464246,7600271,1957878,2,2,2,2
2025-09-03 12:59:56.582,-7600246,7464322,3405829,1957994,2,2,2,2
2025-09-03 12:59:56.585,-7600131,7464442,7600251,1957867,2,2,2,2
2025-09-03 12:59:56.588,-7600140,7464440,7600261,1958123,2,2,2,2
2025-09-03 12:59:56.591,-3405934,7464424,7600233,1958113,2,2,2,2
2025-09-03 12:59:56.594,-3405704,7464595,3406111,1958081,2,2,2,2
2025-09-03 12:59:56.597,-7599886,3270162,7600601,1958137,2,2,2,2
2025-09-03 12:59:56.600,-7600010,7464678,7600515,1950105,2,2,2,2
2025-09-03 12:59:56.603,-7599996,7464705,3406227,1958383,2,2,2,2
2025-09-03 12:59:56.606,-3405585,7464825,3406339,1958173,2,2,2,2
2025-09-03 12:59:56.609,-3405686,7464716,3406310,1958392,2,2,2,2
2025-09-03 12:59:56.611,-7599847,7464929,3406471,1958351,2,2,2,2
2025-09-03 12:59:56.614,-7599882,3270525,7600688,4055425,2,2,2,2
2025-09-03 12:59:56.617,-3405538,7464953,3406490,1958370,2,2,2,2
2025-09-03 12:59:56.619,-7599629,7464847,3406461,1958459,2,2,2,2
2025-09-03 12:59:56.622,-7599491,3270680,7600910,1958673,2,2,2,2
2025-09-03 12:59:56.625,-3405193,7464990,7600911,1958712,2,2,2,2
2025-09-03 12:59:56.628,-7599501,7465060,3406688,1958680,2,2,2,2
2025-09-03 12:59:56.630,-7599617,3270659,7601143,1958634,2,2,2,2
2025-09-03 12:59:56.633,-7599605,7464975,3406595,1958653,2,2,2,2
2025-09-03 12:59:56.636,-7599597,3270681,7600922,1958677,2,2,2,2
2025-09-03 12:59:56.639,-7599464,3270887,7601139,4056048,2,2,2,2
2025-09-03 12:59:56.641,-3405172,7465200,7601137,1958901,2,2,2,2
2025-09-03 12:59:56.644,-7599616,7465068,7601005,1958763,2,2,2,2
2025-09-03 12:59:56.647,-3405214,7465158,7601018,1958796,2,2,2,2
2025-09-03 12:59:56.650,-3405412,7464975,7600913,1958706,2,2,2,2
2025-09-03 12:59:56.661,-7599560,7465208,7601148,1958664,2,2,2,2
2025-09-03 12:59:56.661,-3405155,7465323,3406951,1958702,2,2,2,2
2025-09-03 12:59:56.661,-7599480,7465316,3406955,1958950,2,2,2,2
2025-09-03 12:59:56.661,-7599495,7465237,7601248,1958935,2,2,2,2
2025-09-03 12:59:56.664,-7599370,7465356,3407006,1959066,2,2,2,2
2025-09-03 12:59:56.667,-3404959,7465481,7601420,1958919,2,2,2,2
2025-09-03 12:59:56.670,-3404944,7465574,3407219,1958955,2,2,2,2
2025-09-03 12:59:56.673,-7599257,7465537,7601522,1959026,2,2,2,2
2025-09-03 12:59:56.676,-3404899,7465691,7601645,1959112,2,2,2,2
2025-09-03 12:59:56.679,-7599350,7465501,7601528,1959269,2,2,2,2
2025-09-03 12:59:56.682,-3405044,7465496,7601528,1959270,2,2,2,2
2025-09-03 12:59:56.684,-7599205,3263206,7601661,4056571,2,2,2,2
2025-09-03 12:59:56.687,-7599104,7465747,3407470,1959214,2,2,2,2
2025-09-03 12:59:56.690,-7598875,3271440,7601707,4056674,2,2,2,2
2025-09-03 12:59:56.692,-7598986,3263467,7601665,4056568,2,2,2,2
2025-09-03 12:59:56.695,-7599000,3271658,7601664,1959409,2,2,2,2
2025-09-03 12:59:56.697,-7598953,7465755,3407474,1959471,2,2,2,2
2025-09-03 12:59:56.700,-7599004,7465928,7601919,1951484,2,2,2,2
2025-09-03 12:59:56.702,-7598902,7466006,7602037,1959531,2,2,2,2
2025-09-03 12:59:56.705,-3404641,7466178,7602072,1959629,2,2,2,2
2025-09-03 12:59:56.708,-3404569,7466187,7602151,1959637,2,2,2,2
2025-09-03 12:59:56.710,-7598819,7465987,7601989,1959696,2,2,2,2
2025-09-03 12:59:56.713,-7598817,3263495,7601969,4056849,2,2,2,2
2025-09-03 12:59:56.715,-7598846,3263730,7601949,4056841,2,2,2,2
2025-09-03 12:59:56.718,-7598666,7466114,3407860,1959906,2,2,2,2
2025-09-03 12:59:56.721,-7598604,7466222,3342437,1959688,2,2,2,2
2025-09-03 12:59:56.723,-7598656,7466123,7536644,1959904,2,2,2,2
2025-09-03 12:59:56.726,-3404547,7465999,7602050,1959718,2,2,2,2
2025-09-03 12:59:56.729,-7598750,7466104,3407860,1959901,2,2,2,2
2025-09-03 12:59:56.732,-7598617,3271945,7536701,1959785,2,2,2,2
2025-09-03 12:59:56.735,-7598638,3272186,7536691,1959959,2,2,2,2
2025-09-03 12:59:56.737,-3404429,7466394,3342362,1959933,2,2,2,2
2025-09-03 12:59:56.741,-3404283,7466445,7536897,1960094,2,2,2,2
2025-09-03 12:59:56.743,-3404271,7466465,7536916,1960182,2,2,2,2
2025-09-03 12:59:56.746,-7598349,3264137,7537142,1960094,2,2,2,2
2025-09-03 12:59:56.749,-7598592,7466651,7536916,1960177,2,2,2,2
2025-09-03 12:59:56.751,-3404283,7466716,7536919,1960180,2,2,2,2
2025-09-03 12:59:56.754,-7598532,7466749,3342724,1960216,2,2,2,2
2025-09-03 12:59:56.757,-3404055,7466701,7537177,1960398,2,2,2,2
2025-09-03 12:59:56.759,-7598389,7466640,3342945,1960440,2,2,2,2
2025-09-03 12:59:56.762,-7598339,7466735,3342980,1960217,2,2,2,2
2025-09-03 12:59:56.764,-7598218,7466881,7537168,1960347,2,2,2,2
2025-09-03 12:59:56.767,-7598098,7467000,7537352,1960473,2,2,2,2
2025-09-03 12:59:56.770,-7598085,7466752,7537310,1952366,2,2,2,2
2025-09-03 12:59:56.772,-7598334,7466770,7537397,1960572,2,2,2,2
2025-09-03 12:59:56.775,-3404012,7466811,7537427,1960657,2,2,2,2
2025-09-03 12:59:56.777,-7598223,7466901,7537264,1952240,2,2,2,2
2025-09-03 12:59:56.780,-7598084,7466858,3343108,1960652,2,2,2,2
2025-09-03 12:59:56.783,-7598187,7466753,7537390,1952355,2,2,2,2
2025-09-03 12:59:56.786,-3403929,7466908,3343238,1960695,2,2,2,2
2025-09-03 12:59:56.788,-7598189,7466765,3343086,1960494,2,2,2,2
2025-09-03 12:59:56.791,-7598097,7466829,7537431,1960592,2,2,2,2
2025-09-03 12:59:56.794,-7598085,7466883,3343209,1960679,2,2,2,2
2025-09-03 12:59:56.797,-7598136,7466875,3343210,1960680,2,2,2,2
2025-09-03 12:59:56.799,-7598270,7467002,3343338,1960489,2,2,2,2
2025-09-03 12:59:56.802,-7598057,7467244,7537643,1960805,2,2,2,2
2025-09-03 12:59:56.805,-3403757,7467256,7537647,1960768,2,2,2,2
2025-09-03 12:59:56.807,-7597850,3272856,7537865,4057868,2,2,2,2
2025-09-03 12:59:56.810,-7598104,7467153,3343249,1960721,2,2,2,2
2025-09-03 12:59:56.812,-7598098,7467256,7537641,1952612,2,2,2,2
2025-09-03 12:59:56.815,-7597955,7467119,3343475,1960943,2,2,2,2
2025-09-03 12:59:56.818,-7597980,3273069,7537702,1960930,2,2,2,2
2025-09-03 12:59:56.821,-3395554,7467307,3343475,1960941,2,2,2,2
2025-09-03 12:59:56.824,-7597856,7467508,3343609,1961012,2,2,2,2
2025-09-03 12:59:56.827,-3403676,7467460,7537799,1960949,2,2,2,2
2025-09-03 12:59:56.830,-7597957,3273096,7537882,4058121,2,2,2,2
2025-09-03 12:59:56.833,-7597957,3273186,7537911,4058214,2,2,2,2
2025-09-03 12:59:56.836,-7597712,3273193,7538167,4058212,2,2,2,2
2025-09-03 12:59:56.838,-7597704,7467753,3343866,1961262,2,2,2,2
2025-09-03 12:59:56.841,-7597815,7467726,7538067,1961229,2,2,2,2
2025-09-03 12:59:56.843,-3403410,7467760,7538184,1961331,2,2,2,2
2025-09-03 12:59:56.846,-7597566,7467656,7538392,1961227,2,2,2,2
2025-09-03 12:59:56.848,-7597628,7467621,7538233,1961444,2,2,2,2
2025-09-03 12:59:56.851,-7597573,3273440,7538177,4058467,2,2,2,2
2025-09-03 12:59:56.854,-3403133,7467820,7538313,1961458,2,2,2,2
2025-09-03 12:59:56.858,-7597360,3273601,7538390,1961486,2,2,2,2
2025-09-03 12:59:56.861,-7597531,3273582,7538377,1961460,2,2,2,2
2025-09-03 12:59:56.863,-7597444,7467912,7538664,1961489,2,2,2,2
2025-09-03 12:59:56.866,-7597297,7468071,7538560,1961711,2,2,2,2
2025-09-03 12:59:56.869,-7597271,3273861,7538916,1961745,2,2,2,2
2025-09-03 12:59:56.871,-7597060,3273834,7538887,1961963,2,2,2,2
2025-09-03 12:59:56.874,-7597067,7468133,3344512,1961954,2,2,2,2
2025-09-03 12:59:56.876,-3394695,7468260,3344388,1961775,2,2,2,2
2025-09-03 12:59:56.879,-7597213,7468175,3344627,1961751,2,2,2,2
2025-09-03 12:59:56.882,-7597312,7468141,3344614,1961976,2,2,2,2
2025-09-03 12:59:56.885,-7597181,3273987,7538750,1961876,2,2,2,2
2025-09-03 12:59:56.888,-7597310,7468087,7538938,1961736,2,2,2,2
2025-09-03 12:59:56.890,-7597298,7468176,3344405,1961770,2,2,2,2
2025-09-03 12:59:56.893,-3402738,7468445,3344667,1962034,2,2,2,2
2025-09-03 12:59:56.895,-7596823,7468420,3344644,1962009,2,2,2,2
2025-09-03 12:59:56.898,-7596942,3274010,7539167,4059371,2,2,2,2
2025-09-03 12:59:56.901,-3402635,7468331,7539179,1962232,2,2,2,2
2025-09-03 12:59:56.904,-7596806,7468525,3344761,1962045,2,2,2,2
2025-09-03 12:59:56.906,-7596913,7468670,3344914,1962274,2,2,2,2
2025-09-03 12:59:56.909,-7596913,7468678,3344994,1962278,2,2,2,2
2025-09-03 12:59:56.911,-7596940,7468671,7539217,1962264,2,2,2,2
2025-09-03 12:59:56.914,-7597027,7468657,7539190,1962247,2,2,2,2
2025-09-03 12:59:56.917,-7596818,7468547,7539377,1962388,2,2,2,2
2025-09-03 12:59:56.919,-7596608,7468794,7539254,1962379,2,2,2,2
2025-09-03 12:59:56.922,-7596569,7468835,7539427,1962489,2,2,2,2
2025-09-03 12:59:56.925,-7596786,7468923,3345166,1962510,2,2,2,2
2025-09-03 12:59:56.928,-7596596,3274743,7539661,1962655,2,2,2,2
2025-09-03 12:59:56.931,-7596560,7468906,7539702,1962497,2,2,2,2
2025-09-03 12:59:56.934,-7596592,7468822,7539697,1962749,2,2,2,2
2025-09-03 12:59:56.936,-7596747,7468813,7539688,1962738,2,2,2,2
2025-09-03 12:59:56.939,-3394029,7469037,7539581,1962696,2,2,2,2
2025-09-03 12:59:56.942,-7596502,7469061,7539691,1962724,2,2,2,2
2025-09-03 12:59:56.944,-3402114,7469101,7539720,1962762,2,2,2,2
2025-09-03 12:59:56.947,-3402139,7469074,7539700,1962748,2,2,2,2
2025-09-03 12:59:56.949,-7596411,3274887,7539750,4060005,2,2,2,2
2025-09-03 12:59:56.952,-7596389,3274904,7539769,1962876,2,2,2,2
2025-09-03 12:59:56.954,-7596525,7469087,3345412,1962763,2,2,2,2
2025-09-03 12:59:56.957,-3401967,7469332,7539971,1963013,2,2,2,2
2025-09-03 12:59:56.960,-7596390,7469259,7539864,1962977,2,2,2,2
2025-09-03 12:59:56.962,-7596436,7469183,7539814,1962864,2,2,2,2
2025-09-03 12:59:56.965,-7596409,7469281,7539846,1962890,2,2,2,2
2025-09-03 12:59:56.967,-7596304,7469343,7539971,1963006,2,2,2,2
2025-09-03 12:59:56.970,-7596247,7469552,7540147,1963159,2,2,2,2
2025-09-03 12:59:56.973,-3401736,7469359,7540072,1963105,2,2,2,2
2025-09-03 12:59:56.976,-7596266,7469466,7540107,1963149,2,2,2,2
2025-09-03 12:59:56.980,-3401840,7469668,3345943,1963285,2,2,2,2
2025-09-03 12:59:56.983,-7596034,7469508,7540119,1963163,2,2,2,2
2025-09-03 12:59:56.986,-7596104,7469692,3346027,1963368,2,2,2,2
2025-09-03 12:59:56.989,-7595818,7469709,7540356,1963387,2,2,2,2
2025-09-03 12:59:56.991,-3401719,7469823,7540478,1963519,2,2,2,2
2025-09-03 12:59:56.994,-3401488,7469799,7540462,1963497,2,2,2,2
2025-09-03 12:59:56.996,-7596007,3275294,7540273,4060513,2,2,2,2
2025-09-03 12:59:56.999,-7595987,3275386,7540284,1963376,2,2,2,2
2025-09-03 12:59:57.001,-7596026,7469922,3346275,1963535,2,2,2,2
2025-09-03 12:59:57.004,-7595811,7469823,7540478,1963511,2,2,2,2
2025-09-03 12:59:57.006,-7596004,7469960,7540623,1963640,2,2,2,2
2025-09-03 12:59:57.009,-3401697,7470024,7540634,1963652,2,2,2,2
2025-09-03 12:59:57.011,-3401593,7469826,7540502,1963773,2,2,2,2
2025-09-03 12:59:57.014,-7595885,3275535,7540507,1963530,2,2,2,2
2025-09-03 12:59:57.017,-3393145,7470085,7540766,1963770,2,2,2,2
2025-09-03 12:59:57.020,-3393160,7470077,3346447,1963764,2,2,2,2
2025-09-03 12:59:57.022,-7595745,7470067,7540741,1963749,2,2,2,2
2025-09-03 12:59:57.025,-7595680,3275777,7540757,1963756,2,2,2,2
2025-09-03 12:59:57.028,-7595760,7470060,3346448,1963756,2,2,2,2
2025-09-03 12:59:57.031,-7595653,7470184,3346570,1963803,2,2,2,2
2025-09-03 12:59:57.034,-7595638,3275914,7540954,4061049,2,2,2,2
2025-09-03 12:59:57.036,-7595652,3275912,7540951,4061051,2,2,2,2
2025-09-03 12:59:57.039,-7595517,7470350,7541090,1964026,2,2,2,2
2025-09-03 12:59:57.041,-7595531,7470328,7540749,1964022,2,2,2,2
2025-09-03 12:59:57.044,-3393170,7470142,3346577,1963834,2,2,2,2
2025-09-03 12:59:57.046,-7595495,7470436,7541118,1964055,2,2,2,2
2025-09-03 12:59:57.049,-7595486,3276154,7541202,1964154,2,2,2,2
2025-09-03 12:59:57.052,-7595501,7470453,7541203,1964144,2,2,2,2
2025-09-03 12:59:57.054,-3401194,7470465,3346915,1964228,2,2,2,2
2025-09-03 12:59:57.057,-7595506,7470460,3346919,1964224,2,2,2,2
2025-09-03 12:59:57.060,-3401204,7470475,3346925,1964224,2,2,2,2
2025-09-03 12:59:57.063,-7595507,7470491,3346932,1964234,2,2,2,2
2025-09-03 12:59:57.066,-7595423,3276271,7541009,1964266,2,2,2,2
2025-09-03 12:59:57.069,-3401111,7470591,7541089,1964284,2,2,2,2
2025-09-03 12:59:57.071,-3401106,7470597,7541355,1964295,2,2,2,2
2025-09-03 12:59:57.074,-7595273,7470746,7541251,1964440,2,2,2,2
2025-09-03 12:59:57.077,-7595215,7470617,7541377,1964312,2,2,2,2
2025-09-03 12:59:57.079,-7595020,3276445,7541514,1964513,2,2,2,2
2025-09-03 12:59:57.082,-7595138,7470961,3347355,1964646,2,2,2,2
2025-09-03 12:59:57.084,-7595149,7470967,3347354,1964589,2,2,2,2
2025-09-03 12:59:57.087,-3400947,7470861,7541638,1964552,2,2,2,2
2025-09-03 12:59:57.090,-7595161,7470961,7541731,1964653,2,2,2,2
2025-09-03 12:59:57.092,-7595137,7471056,7541504,1964685,2,2,2,2
2025-09-03 12:59:57.095,-7595262,7470952,7541656,1964644,2,2,2,2
2025-09-03 12:59:57.099,-3400724,7470859,3347328,1964560,2,2,2,2
2025-09-03 12:59:57.101,-7594947,7471095,7541837,1964784,2,2,2,2
2025-09-03 12:59:57.105,-3400607,7405791,7541785,1964954,2,2,2,2
2025-09-03 12:59:57.107,-3400584,7405817,7541867,1965045,2,2,2,2
2025-09-03 12:59:57.110,-7594907,7405791,7541787,1965033,2,2,2,2
2025-09-03 12:59:57.113,-7594720,7405796,7542071,1965031,2,2,2,2
2025-09-03 12:59:57.116,-7594725,7405810,7542130,1965045,2,2,2,2
2025-09-03 12:59:57.119,-7594514,7405956,3347724,1965260,2,2,2,2
2025-09-03 12:59:57.122,-7594611,7405937,3347953,1965106,2,2,2,2
2025-09-03 12:59:57.124,-7594611,3211648,7542019,1965189,2,2,2,2
2025-09-03 12:59:57.127,-7594595,7405956,7542032,1965198,2,2,2,2
2025-09-03 12:59:57.129,-7594650,7405928,7542258,1965167,2,2,2,2
2025-09-03 12:59:57.132,-7594716,7405930,7542265,1965179,2,2,2,2
2025-09-03 12:59:57.134,-7594525,7406069,7542399,1965307,2,2,2,2
2025-09-03 12:59:57.138,-3400292,7406061,3348097,1965306,2,2,2,2
2025-09-03 12:59:57.140,-7594455,7406206,7542284,1965458,2,2,2,2
2025-09-03 12:59:57.143,-7594265,7406093,7542426,1965337,2,2,2,2
2025-09-03 12:59:57.146,-7594242,7406185,3356410,1965367,2,2,2,2
2025-09-03 12:59:57.148,-7594388,7406267,7542646,1965548,2,2,2,2
2025-09-03 12:59:57.151,-7594255,7406176,7542530,1965421,2,2,2,2
2025-09-03 12:59:57.153,-3391995,7406143,7542546,1965519,2,2,2,2
2025-09-03 12:59:57.156,-7594487,7406260,7542644,1965551,2,2,2,2
2025-09-03 12:59:57.159,-3391884,7406335,3348383,1965590,2,2,2,2
2025-09-03 12:59:57.162,-7594433,7406333,3348453,1965594,2,2,2,2
2025-09-03 12:59:57.165,-3400043,7406390,7542626,1965710,2,2,2,2
2025-09-03 12:59:57.168,-7594221,7406584,7542776,1965597,2,2,2,2
2025-09-03 12:59:57.171,-7594129,7406450,7542807,1965699,2,2,2,2
2025-09-03 12:59:57.173,-3391739,7406339,7542779,1965599,2,2,2,2
2025-09-03 12:59:57.176,-7594233,7406611,7542788,1965934,2,2,2,2
2025-09-03 12:59:57.179,-3391606,7406803,7542914,1966029,2,2,2,2
2025-09-03 12:59:57.181,-7594217,7406693,7542804,1965955,2,2,2,2
2025-09-03 12:59:57.184,-7594048,7406595,3348725,1965849,2,2,2,2
2025-09-03 12:59:57.186,-7594107,3212529,7543016,4062987,2,2,2,2
2025-09-03 12:59:57.190,-3391458,7406788,3348860,1966049,2,2,2,2
2025-09-03 12:59:57.193,-7594040,3212543,7543025,1965844,2,2,2,2
2025-09-03 12:59:57.196,-7594127,7406822,3356896,1965826,2,2,2,2
2025-09-03 12:59:57.198,-7593982,7406717,3348852,1966049,2,2,2,2
2025-09-03 12:59:57.201,-7577545,7406847,7543043,1900643,2,2,2,2
2025-09-03 12:59:57.204,-3399531,7406886,3348834,1900751,2,2,2,2
2025-09-03 12:59:57.207,-7577566,3212546,7543301,1900568,2,2,2,2
2025-09-03 12:59:57.210,-7577328,7407095,7543543,1900826,2,2,2,2
2025-09-03 12:59:57.213,-7593737,7407080,3357434,1900821,2,2,2,2
2025-09-03 12:59:57.215,-7593859,7406968,3349131,1900758,2,2,2,2
2025-09-03 12:59:57.218,-7577368,7407053,7543544,1900810,2,2,2,2
2025-09-03 12:59:57.221,-7577294,7407216,7543421,1901024,2,2,2,2
2025-09-03 12:59:57.223,-7577217,7407282,7543526,1900803,2,2,2,2
2025-09-03 12:59:57.226,-7593546,7407355,3357454,1900826,2,2,2,2
2025-09-03 12:59:57.229,-3383020,7407152,7543430,1900980,2,2,2,2
2025-09-03 12:59:57.232,-7577311,7407234,7543493,1901036,2,2,2,2
2025-09-03 12:59:57.235,-7577099,7407134,7543609,1900944,2,2,2,2
2025-09-03 12:59:57.238,-7593724,7407236,3357668,1901027,2,2,2,2
2025-09-03 12:59:57.241,-7577246,3212953,7543806,3998220,2,2,2,2
2025-09-03 12:59:57.244,-7593595,7407359,3357538,1901096,2,2,2,2
2025-09-03 12:59:57.246,-7577103,3213178,7543777,3998446,2,2,2,2
2025-09-03 12:59:57.249,-7593590,7407385,3357566,1901268,2,2,2,2
2025-09-03 12:59:57.252,-7593537,7407477,3357589,1901290,2,2,2,2
2025-09-03 12:59:57.254,-7577215,7407399,7543702,1901213,2,2,2,2
2025-09-03 12:59:57.257,-7576977,7407430,7543953,1901206,2,2,2,2
2025-09-03 12:59:57.260,-7576833,7407614,7543906,1901425,2,2,2,2
2025-09-03 12:59:57.263,-7576848,7407597,7543904,1901340,2,2,2,2
2025-09-03 12:59:57.265,-7593232,7407599,7543839,1901343,2,2,2,2
2025-09-03 12:59:57.269,-3398938,7407586,3349517,1901336,2,2,2,2
2025-09-03 12:59:57.271,-3399062,7407736,3349740,1901561,2,2,2,2
2025-09-03 12:59:57.274,-7576850,7407627,7544192,1901452,2,2,2,2
2025-09-03 12:59:57.277,-7593119,7407769,3350012,1901568,2,2,2,2
2025-09-03 12:59:57.280,-7576696,7407867,7544181,1901671,2,2,2,2
2025-09-03 12:59:57.282,-7576633,7407857,7544180,1901674,2,2,2,2
2025-09-03 12:59:57.285,-3390600,7408126,7544444,1901622,2,2,2,2
2025-09-03 12:59:57.287,-7576589,7407979,7544320,1901804,2,2,2,2
2025-09-03 12:59:57.290,-3390564,7407912,3350000,1901792,2,2,2,2
2025-09-03 12:59:57.293,-3382288,7408066,7544349,1901820,2,2,2,2
2025-09-03 12:59:57.296,-7593147,7407878,3358355,1901631,2,2,2,2
2025-09-03 12:59:57.299,-7576734,3213576,7544538,1901712,2,2,2,2
2025-09-03 12:59:57.302,-7576554,7408146,7544475,1901958,2,2,2,2
2025-09-03 12:59:57.304,-7576334,7408363,7544695,1901935,2,2,2,2
2025-09-03 12:59:57.307,-7576552,7408140,7544774,1901980,2,2,2,2
2025-09-03 12:59:57.310,-3390361,7408176,7544829,1902025,2,2,2,2
2025-09-03 12:59:57.313,-3390357,7408186,7544594,1902082,2,2,2,2
2025-09-03 12:59:57.315,-7576372,7408355,7544776,1902186,2,2,2,2
2025-09-03 12:59:57.318,-3390240,7408381,3350500,1902285,2,2,2,2
2025-09-03 12:59:57.321,-7576342,7408383,7544811,1902221,2,2,2,2
2025-09-03 12:59:57.324,-7576330,7408444,7561221,1902315,2,2,2,2
2025-09-03 12:59:57.327,-7576170,3214093,7561452,3999382,2,2,2,2
2025-09-03 12:59:57.330,-7576199,3214325,7561439,1902224,2,2,2,2
2025-09-03 12:59:57.333,-7592472,7408498,3366932,1902335,2,2,2,2
2025-09-03 12:59:57.336,-7576288,3214332,7545053,1902473,2,2,2,2
2025-09-03 12:59:57.339,-7576096,7408833,7561579,1902361,2,2,2,2
2025-09-03 12:59:57.342,-3381773,7408859,7561604,1902454,2,2,2,2
2025-09-03 12:59:57.344,-7576054,7408642,7545325,1902475,2,2,2,2
2025-09-03 12:59:57.347,-3381740,7408662,7561716,1902523,2,2,2,2
2025-09-03 12:59:57.350,-3381636,7408838,7561589,1902651,2,2,2,2
2025-09-03 12:59:57.353,-7592394,7408774,7545206,1902616,2,2,2,2
2025-09-03 12:59:57.356,-3398124,7408747,3367186,1902597,2,2,2,2
2025-09-03 12:59:57.358,-7592310,7408871,3367322,1902650,2,2,2,2
2025-09-03 12:59:57.361,-7575942,3214495,7561683,3999862,2,2,2,2
2025-09-03 12:59:57.364,-7576059,7409017,7561829,1902841,2,2,2,2
2025-09-03 12:59:57.366,-7576062,7409014,7561841,1902594,2,2,2,2
2025-09-03 12:59:57.369,-7576027,7409125,7545489,1902701,2,2,2,2
2025-09-03 12:59:57.371,-7575848,7408919,7545363,1902827,2,2,2,2
2025-09-03 12:59:57.374,-7575839,3214702,7561765,3999999,2,2,2,2
2025-09-03 12:59:57.376,-3381608,7408947,7561830,1902862,2,2,2,2
2025-09-03 12:59:57.379,-7575827,7409036,7561866,1902620,2,2,2,2
2025-09-03 12:59:57.382,-7575966,7408906,7561743,1902816,2,2,2,2
2025-09-03 12:59:57.384,-7592210,7409051,3351198,1902959,2,2,2,2
2025-09-03 12:59:57.387,-3381519,7409132,7561967,1902985,2,2,2,2
2025-09-03 12:59:57.390,-7592227,7409124,7545500,1902972,2,2,2,2
2025-09-03 12:59:57.393,-7575781,7409248,7545630,1902850,2,2,2,2
2025-09-03 12:59:57.396,-7575808,7409170,7545662,1903091,2,2,2,2
2025-09-03 12:59:57.398,-3397779,7409286,3367827,1902885,2,2,2,2
2025-09-03 12:59:57.401,-7591951,7409169,7545625,1903101,2,2,2,2
2025-09-03 12:59:57.403,-7575799,7409264,7545712,1903122,2,2,2,2
2025-09-03 12:59:57.406,-7575671,3215092,7562240,4000410,2,2,2,2
2025-09-03 12:59:57.408,-7575669,3215110,7562260,4000485,2,2,2,2
2025-09-03 12:59:57.411,-7575668,7409412,7562266,1903335,2,2,2,2
2025-09-03 12:59:57.413,-7592050,7409420,3359774,1903345,2,2,2,2
2025-09-03 12:59:57.416,-3389547,7409434,3368046,1903358,2,2,2,2
2025-09-03 12:59:57.418,-3397513,7409661,3367967,1903341,2,2,2,2
2025-09-03 12:59:57.421,-7575394,7409486,7562386,1903383,2,2,2,2
2025-09-03 12:59:57.424,-7591935,7409643,3359746,1903303,2,2,2,2
2025-09-03 12:59:57.427,-7575542,7409644,7545870,1903259,2,2,2,2
2025-09-03 12:59:57.430,-7575401,7409470,7562390,1903474,2,2,2,2
2025-09-03 12:59:57.433,-3381226,7409663,7562339,1903349,2,2,2,2
2025-09-03 12:59:57.436,-7591743,7409771,7546249,1903464,2,2,2,2
2025-09-03 12:59:57.439,-3397511,7409789,3368341,1903405,2,2,2,2
2025-09-03 12:59:57.442,-7591808,7409779,3368421,1903416,2,2,2,2
2025-09-03 12:59:57.445,-7575453,3215391,7562700,4000540,2,2,2,2
2025-09-03 12:59:57.447,-7591837,7409783,3360155,1903398,2,2,2,2
2025-09-03 12:59:57.450,-7575301,3215366,7562553,1903625,2,2,2,2
2025-09-03 12:59:57.452,-7575082,7409908,7546433,1903853,2,2,2,2
2025-09-03 12:59:57.455,-3389156,7409868,3368443,1903808,2,2,2,2
2025-09-03 12:59:57.457,-7575279,3215486,7546348,1903741,2,2,2,2
2025-09-03 12:59:57.460,-3397243,7410174,3368559,1903864,2,2,2,2
2025-09-03 12:59:57.463,-7591217,7410186,7546753,1903872,2,2,2,2
2025-09-03 12:59:57.466,-7575009,3216106,7563036,1904029,2,2,2,2
2025-09-03 12:59:57.469,-7575040,3216003,7563257,1904004,2,2,2,2
2025-09-03 12:59:57.471,-7575021,3216103,7563037,1904101,2,2,2,2
2025-09-03 12:59:57.474,-7575020,7410375,7563112,1904105,2,2,2,2
2025-09-03 12:59:57.476,-7575024,7410415,7546737,1904111,2,2,2,2
2025-09-03 12:59:57.479,-3388662,7410408,7563381,1904365,2,2,2,2
2025-09-03 12:59:57.481,-3380581,7410370,7563282,1904267,2,2,2,2
2025-09-03 12:59:57.484,-7591223,7410291,7546874,1904248,2,2,2,2
2025-09-03 12:59:57.486,-7591232,7410327,3360867,1904354,2,2,2,2
2025-09-03 12:59:57.489,-7574765,7410458,7563488,1904159,2,2,2,2
2025-09-03 12:59:57.491,-7591146,7410529,3352807,1904228,2,2,2,2
2025-09-03 12:59:57.494,-7574757,3216235,7563510,1904238,2,2,2,2
2025-09-03 12:59:57.496,-7574655,3216270,7563299,1904281,2,2,2,2
2025-09-03 12:59:57.499,-7574652,7410587,7563363,1904360,2,2,2,2
2025-09-03 12:59:57.501,-7574790,7410490,7563495,1904155,2,2,2,2
2025-09-03 12:59:57.504,-7574806,7410435,7547039,1904157,2,2,2,2
2025-09-03 12:59:57.507,-3388560,7410646,7563389,1904373,2,2,2,2
2025-09-03 12:59:57.510,-3396746,7410658,3369089,1904383,2,2,2,2
2025-09-03 12:59:57.513,-7574784,3216251,7563551,1904542,2,2,2,2
2025-09-03 12:59:57.515,-7574571,3216403,7563771,1904506,2,2,2,2
2025-09-03 12:59:57.518,-3396608,7410817,3369319,1904618,2,2,2,2
2025-09-03 12:59:57.520,-7574487,7410926,7547317,1904649,2,2,2,2
2025-09-03 12:59:57.523,-7574532,7410831,7547254,1904623,2,2,2,2
2025-09-03 12:59:57.525,-3380120,7410703,7563769,1904717,2,2,2,2
2025-09-03 12:59:57.528,-7574277,3224711,7563837,4002036,2,2,2,2
2025-09-03 12:59:57.530,-7590789,7410786,3361298,1904833,2,2,2,2
2025-09-03 12:59:57.533,-7574522,7410926,7564004,1904668,2,2,2,2
2025-09-03 12:59:57.535,-7590711,7411076,3353208,1904880,2,2,2,2
2025-09-03 12:59:57.538,-3380092,7411141,7563896,1904879,2,2,2,2
2025-09-03 12:59:57.541,-7574282,7410951,7564021,1904752,2,2,2,2
2025-09-03 12:59:57.544,-3380201,7410987,7563804,1904824,2,2,2,2
2025-09-03 12:59:57.546,-7574375,3216885,7564017,4002076,2,2,2,2
2025-09-03 12:59:57.549,-3396379,7410947,3369723,1904940,2,2,2,2
2025-09-03 12:59:57.552,-7574262,7411048,7547716,1905052,2,2,2,2
2025-09-03 12:59:57.555,-7574276,7411044,7547672,1905047,2,2,2,2
2025-09-03 12:59:57.557,-3379975,7410990,7564145,1905088,2,2,2,2
2025-09-03 12:59:57.560,-7574398,3225075,7564015,4002152,2,2,2,2
2025-09-03 12:59:57.562,-7590724,7411042,3361635,1905091,2,2,2,2
2025-09-03 12:59:57.565,-7590533,7411186,3361791,1904940,2,2,2,2
2025-09-03 12:59:57.568,-7574261,7411359,7547805,1905164,2,2,2,2
2025-09-03 12:59:57.571,-7574079,7411312,7547932,1905295,2,2,2,2
2025-09-03 12:59:57.574,-7590521,7411309,3370088,1905369,2,2,2,2
2025-09-03 12:59:57.577,-7590403,7411426,3362025,1905178,2,2,2,2
2025-09-03 12:59:57.579,-7573904,3225440,7564331,4002457,2,2,2,2
2025-09-03 12:59:57.582,-7573909,7411508,7564396,1913491,2,2,2,2
2025-09-03 12:59:57.585,-7573892,7411598,7564444,1905405,2,2,2,2
2025-09-03 12:59:57.588,-7590340,7411558,3353698,1905297,2,2,2,2
2025-09-03 12:59:57.591,-3387873,7411509,3370112,1905384,2,2,2,2
2025-09-03 12:59:57.593,-3395992,7411590,3370388,1905645,2,2,2,2
2025-09-03 12:59:57.597,-7573704,3217544,7564765,1905654,2,2,2,2
2025-09-03 12:59:57.600,-7590095,7411841,3362188,1905657,2,2,2,2
2025-09-03 12:59:57.602,-7573556,7411712,7548429,1905764,2,2,2,2
2025-09-03 12:59:57.605,-7573611,7411726,7564830,1913970,2,2,2,2
2025-09-03 12:59:57.608,-7589905,7411817,3362434,1905884,2,2,2,2
2025-09-03 12:59:57.611,-7573505,7411849,7548609,1905919,2,2,2,2
2025-09-03 12:59:57.613,-7573523,7411855,7548602,1905918,2,2,2,2
2025-09-03 12:59:57.616,-7573561,7412080,7548547,1905818,2,2,2,2
2025-09-03 12:59:57.619,-3379205,7412201,7565058,1905935,2,2,2,2
2025-09-03 12:59:57.621,-7573393,3225961,7565118,4003216,2,2,2,2
2025-09-03 12:59:57.624,-7589891,7412195,3362559,1905944,2,2,2,2
2025-09-03 12:59:57.626,-7573381,7412042,7565201,1906079,2,2,2,2
2025-09-03 12:59:57.629,-7573350,7412158,7565056,1914128,2,2,2,2
2025-09-03 12:59:57.631,-7573446,7412357,7548874,1906170,2,2,2,2
2025-09-03 12:59:57.634,-3379085,7412425,7565283,1906176,2,2,2,2
2025-09-03 12:59:57.636,-3379185,7412260,7565180,1906107,2,2,2,2
2025-09-03 12:59:57.639,-7573279,3226126,7565102,4003205,2,2,2,2
2025-09-03 12:59:57.641,-3379080,7412203,7565064,1905950,2,2,2,2
2025-09-03 12:59:57.644,-7589788,7412120,3371006,1905942,2,2,2,2
2025-09-03 12:59:57.648,-7573497,3218045,7565281,1906166,2,2,2,2
2025-09-03 12:59:57.651,-7573403,7412376,7565334,1906276,2,2,2,2
2025-09-03 12:59:57.654,-7589649,7412329,3371165,1906421,2,2,2,2
2025-09-03 12:59:57.657,-3395467,7412226,3371119,1906235,2,2,2,2
2025-09-03 12:59:57.660,-7573351,3218033,7565540,1906414,2,2,2,2
2025-09-03 12:59:57.662,-7573040,7412581,7549139,1906413,2,2,2,2
2025-09-03 12:59:57.665,-7589516,7412576,3371154,1906401,2,2,2,2
2025-09-03 12:59:57.667,-7573018,3218313,7565574,1906451,2,2,2,2
2025-09-03 12:59:57.670,-3395204,7412508,3371489,1906665,2,2,2,2
2025-09-03 12:59:57.673,-7589603,7412488,3371400,1906636,2,2,2,2
2025-09-03 12:59:57.676,-7572992,3218436,7565773,4003713,2,2,2,2
2025-09-03 12:59:57.679,-7572974,3218461,7565791,4003809,2,2,2,2
2025-09-03 12:59:57.681,-7589369,7412750,3371413,1906640,2,2,2,2
2025-09-03 12:59:57.684,-7589399,7412731,3371391,1906625,2,2,2,2
2025-09-03 12:59:57.687,-7589240,7412964,3371630,1906730,2,2,2,2
2025-09-03 12:59:57.689,-7589368,7412835,3371498,1906665,2,2,2,2
2025-09-03 12:59:57.692,-7572740,7412808,7566062,1915112,2,2,2,2
2025-09-03 12:59:57.694,-7572932,7412971,7549572,1906818,2,2,2,2
2025-09-03 12:59:57.697,-7572956,7412880,7549517,1906789,2,2,2,2
2025-09-03 12:59:57.699,-7572776,3218710,7566052,1906839,2,2,2,2
2025-09-03 12:59:57.702,-3378562,7413001,7566052,1906891,2,2,2,2
2025-09-03 12:59:57.705,-7572798,7413018,7549683,1906913,2,2,2,2
2025-09-03 12:59:57.708,-7572756,7413123,7549720,1906958,2,2,2,2
2025-09-03 12:59:57.711,-7572768,7413046,7566177,1906950,2,2,2,2
2025-09-03 12:59:57.714,-3378413,7413238,7566304,1907085,2,2,2,2
2025-09-03 12:59:57.716,-3378208,7413195,7566197,1906969,2,2,2,2
2025-09-03 12:59:57.719,-7588935,7413125,3371884,1906970,2,2,2,2
2025-09-03 12:59:57.721,-7572488,7413198,7566226,1907084,2,2,2,2
2025-09-03 12:59:57.724,-7589104,7413252,3372019,1907173,2,2,2,2
2025-09-03 12:59:57.727,-7588936,7413395,3372167,1907249,2,2,2,2
2025-09-03 12:59:57.730,-7588819,7413368,7550057,1907220,2,2,2,2
2025-09-03 12:59:57.733,-7572453,3219061,7566367,1907216,2,2,2,2
2025-09-03 12:59:57.736,-7572228,3219220,7566607,1907449,2,2,2,2
2025-09-03 12:59:57.739,-7572418,7413731,7550351,1907572,2,2,2,2
2025-09-03 12:59:57.742,-7572229,7413621,7566617,1915659,2,2,2,2
2025-09-03 12:59:57.745,-3378072,7413726,7566736,1907515,2,2,2,2
2025-09-03 12:59:57.747,-3378151,7413731,7566745,1907575,2,2,2,2
2025-09-03 12:59:57.750,-7572219,3227534,7566790,4004711,2,2,2,2
2025-09-03 12:59:57.752,-3377915,7413722,7566741,1907512,2,2,2,2
2025-09-03 12:59:57.755,-7572215,7430295,7550682,1907839,2,2,2,2
2025-09-03 12:59:57.758,-3377916,7430347,3372687,1907768,2,2,2,2
2025-09-03 12:59:57.761,-7588590,7430391,7550711,1907871,2,2,2,2
2025-09-03 12:59:57.764,-3377799,7430180,7566944,1907720,2,2,2,2
2025-09-03 12:59:57.767,-3394173,7430271,3372661,1907736,2,2,2,2
2025-09-03 12:59:57.770,-7571990,7413963,7567091,1907855,2,2,2,2
2025-09-03 12:59:57.773,-7571838,7414142,7567246,1916261,2,2,2,2
2025-09-03 12:59:57.776,-7571951,7414095,7567214,1916166,2,2,2,2
2025-09-03 12:59:57.778,-7571990,7430403,7550722,1907938,2,2,2,2
2025-09-03 12:59:57.781,-7571736,7430418,7550730,1908203,2,2,2,2
2025-09-03 12:59:57.783,-7571840,7414255,7567344,1916301,2,2,2,2
2025-09-03 12:59:57.786,-3377568,7430613,3372943,1908018,2,2,2,2
2025-09-03 12:59:57.789,-7571857,7414207,7567351,1916298,2,2,2,2
2025-09-03 12:59:57.792,-7571757,3236108,7567137,1908217,2,2,2,2
2025-09-03 12:59:57.795,-7571737,7430516,7550855,1907983,2,2,2,2
2025-09-03 12:59:57.799,-3377519,7430693,7567478,1908233,2,2,2,2
2025-09-03 12:59:57.802,-7588098,7430880,7551221,1908347,2,2,2,2
2025-09-03 12:59:57.805,-7571694,7430901,7550997,1908449,2,2,2,2
2025-09-03 12:59:57.807,-7571575,7414401,7567506,1916439,2,2,2,2
2025-09-03 12:59:57.810,-7571703,7430912,7551280,1908381,2,2,2,2
2025-09-03 12:59:57.813,-7571515,7430776,7551115,1908237,2,2,2,2
2025-09-03 12:59:57.815,-3377437,7430885,7567615,1908356,2,2,2,2
2025-09-03 12:59:57.818,-7571730,3236604,7567383,4005531,2,2,2,2
2025-09-03 12:59:57.820,-7571563,3236599,7567630,1908366,2,2,2,2
2025-09-03 12:59:57.823,-7571702,3236707,7567674,1908485,2,2,2,2
2025-09-03 12:59:57.826,-7571474,3236630,7567663,4005630,2,2,2,2
2025-09-03 12:59:57.828,-3377396,7430705,7567496,1908273,2,2,2,2
2025-09-03 12:59:57.831,-7587977,7430908,3373330,1908435,2,2,2,2
2025-09-03 12:59:57.833,-7571593,3236593,7567630,4005517,2,2,2,2
2025-09-03 12:59:57.836,-7571573,7414583,7567726,1916659,2,2,2,2
2025-09-03 12:59:57.838,-7571698,7414720,7567618,1916785,2,2,2,2
2025-09-03 12:59:57.841,-3377173,7431105,7567844,1908508,2,2,2,2
2025-09-03 12:59:57.843,-3377174,7431114,3373544,1908514,2,2,2,2
2025-09-03 12:59:57.846,-7571457,3228648,7567880,4005758,2,2,2,2
2025-09-03 12:59:57.848,-7571456,3228654,7567901,4005779,2,2,2,2
2025-09-03 12:59:57.851,-3376920,7431386,7567873,1908859,2,2,2,2
2025-09-03 12:59:57.854,-3377021,7431229,7568104,1908804,2,2,2,2
2025-09-03 12:59:57.857,-3376926,7431411,3373594,1925319,2,2,2,2
2025-09-03 12:59:57.860,-7587806,7431277,3357343,1925139,2,2,2,2
2025-09-03 12:59:57.863,-7571348,3236988,7568115,4022296,2,2,2,2
2025-09-03 12:59:57.867,-3393425,7431312,3373828,1925165,2,2,2,2
2025-09-03 12:59:57.870,-7571347,3228906,7568148,4022413,2,2,2,2
2025-09-03 12:59:57.872,-3376901,7431479,7568369,1909057,2,2,2,2
2025-09-03 12:59:57.875,-7571096,3237356,7568157,4022673,2,2,2,2
2025-09-03 12:59:57.878,-7587348,7431541,3374067,1925410,2,2,2,2
2025-09-03 12:59:57.880,-3376883,7431642,7568404,1909125,2,2,2,2
2025-09-03 12:59:57.883,-7570946,7415183,7568399,1917306,2,2,2,2
2025-09-03 12:59:57.885,-7570970,7415171,7568382,1909098,2,2,2,2
2025-09-03 12:59:57.888,-7571144,7431710,7552185,1925635,2,2,2,2
2025-09-03 12:59:57.891,-7570967,7431904,7552056,1925768,2,2,2,2
2025-09-03 12:59:57.893,-3376657,7431899,7568480,1909453,2,2,2,2
2025-09-03 12:59:57.896,-3376638,7431935,7568512,1909443,2,2,2,2
2025-09-03 12:59:57.898,-7570928,3229196,7568589,4023034,2,2,2,2
2025-09-03 12:59:57.901,-3376538,7431730,7568638,1909280,2,2,2,2
2025-09-03 12:59:57.904,-7570742,7431905,7552320,1925783,2,2,2,2
2025-09-03 12:59:57.907,-7570939,7432038,7552484,1925904,2,2,2,2
2025-09-03 12:59:57.910,-7570822,7415753,7568747,1917844,2,2,2,2
2025-09-03 12:59:57.912,-7570888,7432165,7552334,1926022,2,2,2,2
2025-09-03 12:59:57.915,-3376354,7432155,7568995,1909566,2,2,2,2
2025-09-03 12:59:57.917,-7570476,7432203,7552721,1926130,2,2,2,2
2025-09-03 12:59:57.920,-3376379,7432401,7568907,1909872,2,2,2,2
2025-09-03 12:59:57.923,-3376151,7432245,7569145,1909795,2,2,2,2
2025-09-03 12:59:57.926,-7570465,7432306,7552771,1926171,2,2,2,2
2025-09-03 12:59:57.929,-7586699,7432457,3358616,1926402,2,2,2,2
2025-09-03 12:59:57.931,-7570306,3229969,7569388,4023565,2,2,2,2
2025-09-03 12:59:57.934,-3376122,7416040,7569277,1909985,2,2,2,2
2025-09-03 12:59:57.937,-7586620,7432585,3374865,1926442,2,2,2,2
2025-09-03 12:59:57.940,-3376118,7432443,7569294,1909996,2,2,2,2
2025-09-03 12:59:57.943,-7570396,7432479,7553011,1926420,2,2,2,2
2025-09-03 12:59:57.946,-7570402,3238241,7569390,1926417,2,2,2,2
2025-09-03 12:59:57.948,-7570203,7416268,7569544,1910241,2,2,2,2
2025-09-03 12:59:57.951,-7586683,7432596,3375227,1926599,2,2,2,2
2025-09-03 12:59:57.954,-7570389,7432597,7585838,1926531,2,2,2,2
2025-09-03 12:59:57.957,-7570403,7416264,7569509,1910129,2,2,2,2
2025-09-03 12:59:57.960,-7586583,7432801,7585796,1926675,2,2,2,2
2025-09-03 12:59:57.963,-7570407,3230111,7569457,1926539,2,2,2,2
2025-09-03 12:59:57.966,-7570370,7432711,7586035,1926657,2,2,2,2
2025-09-03 12:59:57.969,-7570280,7416377,7569428,1910383,2,2,2,2
2025-09-03 12:59:57.972,-7570166,7416547,7569542,1910428,2,2,2,2
2025-09-03 12:59:57.975,-7586500,7432728,7586052,1926675,2,2,2,2
2025-09-03 12:59:57.978,-7570306,7416432,7569431,1918561,2,2,2,2
2025-09-03 12:59:57.981,-7586618,7432857,3375244,1926862,2,2,2,2
2025-09-03 12:59:57.984,-7570193,3238639,7569628,1926895,2,2,2,2
2025-09-03 12:59:57.987,-7570162,7416328,7569665,1910282,2,2,2,2
2025-09-03 12:59:57.990,-7586459,7432815,3375456,1926708,2,2,2,2
2025-09-03 12:59:57.993,-7586427,7432858,3375497,1926867,2,2,2,2
2025-09-03 12:59:57.995,-7570062,3238804,7569863,1927055,2,2,2,2
2025-09-03 12:59:57.998,-7569940,7416597,7569936,1918738,2,2,2,2
2025-09-03 12:59:58.001,-7570169,7416692,7569775,1918847,2,2,2,2
2025-09-03 12:59:58.003,-7570156,7416784,7569795,1910670,2,2,2,2
2025-09-03 12:59:58.007,-7586436,7432973,3392006,1926919,2,2,2,2
2025-09-03 12:59:58.010,-3375508,7433208,3375625,1927160,2,2,2,2
2025-09-03 12:59:58.013,-7569707,7433340,7586417,1927273,2,2,2,2
2025-09-03 12:59:58.016,-7569923,7416773,7570154,1910753,2,2,2,2
2025-09-03 12:59:58.018,-3375465,7433409,7570051,1910909,2,2,2,2
2025-09-03 12:59:58.021,-7569787,7416878,7570032,1910892,2,2,2,2
2025-09-03 12:59:58.024,-3375519,7416855,7570193,1910807,2,2,2,2
2025-09-03 12:59:58.027,-3375515,7433252,7570274,1910882,2,2,2,2
2025-09-03 12:59:58.029,-7569813,3239015,7570212,1927266,2,2,2,2
2025-09-03 12:59:58.032,-3375494,7433413,7570314,1910961,2,2,2,2
2025-09-03 12:59:58.035,-7569765,3230964,7570431,4024573,2,2,2,2
2025-09-03 12:59:58.037,-7569433,3239179,7570447,1927443,2,2,2,2
2025-09-03 12:59:58.040,-7585819,7433477,3376132,1927431,2,2,2,2
2025-09-03 12:59:58.042,-7569427,7433497,7586841,1927450,2,2,2,2
2025-09-03 12:59:58.045,-7569655,7433598,7586952,1927559,2,2,2,2
2025-09-03 12:59:58.047,-3375120,7433491,7570536,1911073,2,2,2,2
2025-09-03 12:59:58.050,-7569648,7433593,7587025,1927567,2,2,2,2
2025-09-03 12:59:58.053,-3375119,7433520,3376270,1927625,2,2,2,2
2025-09-03 12:59:58.056,-7569621,3239414,7570454,1927684,2,2,2,2
2025-09-03 12:59:58.059,-3375109,7433941,7570664,1911526,2,2,2,2
2025-09-03 12:59:58.061,-7569433,7433863,7587043,1927835,2,2,2,2
2025-09-03 12:59:58.064,-7569508,7417456,7570658,1927834,2,2,2,2
2025-09-03 12:59:58.068,-7552891,7433844,3376540,1927878,2,2,2,2
2025-09-03 12:59:58.070,-7569178,7417556,7570940,1911535,2,2,2,2
2025-09-03 12:59:58.073,-7552812,7434128,7587317,1928161,2,2,2,2
2025-09-03 12:59:58.077,-3358598,7433855,3376616,1927898,2,2,2,2
2025-09-03 12:59:58.080,-7569285,3239544,7570923,1927831,2,2,2,2
2025-09-03 12:59:58.083,-7569378,7434092,7587227,1928073,2,2,2,2
2025-09-03 12:59:58.086,-7569276,7417834,7570971,1919753,2,2,2,2
2025-09-03 12:59:58.089,-7569176,7417612,7571061,1919851,2,2,2,2
2025-09-03 12:59:58.092,-3358491,7433996,3376771,1927990,2,2,2,2
2025-09-03 12:59:58.095,-3374859,7434024,7571092,1911732,2,2,2,2
2025-09-03 12:59:58.098,-7569039,3239923,7570967,1928210,2,2,2,2
2025-09-03 12:59:58.101,-7568998,7417884,7571086,1928320,2,2,2,2
2025-09-03 12:59:58.104,-7568923,7417964,7571173,1920157,2,2,2,2
2025-09-03 12:59:58.107,-7568948,3239966,7571411,1928327,2,2,2,2
2025-09-03 12:59:58.110,-3374708,7434278,7571425,1911992,2,2,2,2
2025-09-03 12:59:58.113,-7569050,3239947,7571395,1928307,2,2,2,2
2025-09-03 12:59:58.116,-7568920,7417994,7571213,1928438,2,2,2,2
2025-09-03 12:59:58.118,-7568890,3240442,7588032,1928546,2,2,2,2
2025-09-03 12:59:58.121,-7568645,7418348,7571563,1912416,2,2,2,2
2025-09-03 12:59:58.124,-3357976,7434637,3377178,1928709,2,2,2,2
2025-09-03 12:59:58.127,-7568878,3240202,7571667,1928558,2,2,2,2
2025-09-03 12:59:58.130,-7568875,7434525,7588057,1928597,2,2,2,2
2025-09-03 12:59:58.134,-7568775,7418316,7571472,1912321,2,2,2,2
2025-09-03 12:59:58.136,-3374468,7434705,7571481,1912328,2,2,2,2
2025-09-03 12:59:58.139,-7568887,3240312,7571697,1928673,2,2,2,2
2025-09-03 12:59:58.142,-7568640,3240552,7571711,1928862,2,2,2,2
2025-09-03 12:59:58.145,-7568767,7418354,7571583,1912420,2,2,2,2
2025-09-03 12:59:58.148,-7552241,7434897,3393813,1928710,2,2,2,2
2025-09-03 12:59:58.151,-7568390,7418570,7571718,1912560,2,2,2,2
2025-09-03 12:59:58.154,-3374210,7418627,7571863,1912693,2,2,2,2
2025-09-03 12:59:58.157,-7568368,3240938,7572022,4026209,2,2,2,2
2025-09-03 12:59:58.160,-7552177,7435020,3377638,1929161,2,2,2,2
2025-09-03 12:59:58.163,-7568526,7418681,7571965,1912721,2,2,2,2
2025-09-03 12:59:58.166,-7568416,7418683,7571998,1912827,2,2,2,2
2025-09-03 12:59:58.168,-7552004,7435234,3377801,1928990,2,2,2,2
2025-09-03 12:59:58.171,-7568522,3240815,7571994,1929194,2,2,2,2
2025-09-03 12:59:58.174,-7551985,7435015,3394282,1929096,2,2,2,2
2025-09-03 12:59:58.177,-7552080,7435166,3394174,1928977,2,2,2,2
2025-09-03 12:59:58.180,-7568389,3240715,7572203,4026243,2,2,2,2
2025-09-03 12:59:58.182,-3373955,7435203,7572085,1912849,2,2,2,2
2025-09-03 12:59:58.185,-7568329,7435408,7588667,1929244,2,2,2,2
2025-09-03 12:59:58.188,-3373818,7435310,3377935,1929466,2,2,2,2
2025-09-03 12:59:58.191,-7567977,7419136,7572463,1929615,2,2,2,2
2025-09-03 12:59:58.194,-7568169,3240981,7572468,1929367,2,2,2,2
2025-09-03 12:59:58.197,-3373822,7435463,7572343,1913099,2,2,2,2
2025-09-03 12:59:58.200,-7551800,7435379,3394331,1929465,2,2,2,2
2025-09-03 12:59:58.203,-3373671,7435575,3378278,1929725,2,2,2,2
2025-09-03 12:59:58.205,-7567933,7435544,7588872,1929624,2,2,2,2
2025-09-03 12:59:58.208,-7567997,7419251,7572509,1929707,2,2,2,2
2025-09-03 12:59:58.211,-3373801,7435537,3378184,1913301,2,2,2,2
2025-09-03 12:59:58.213,-3373687,7435719,3378308,1929747,2,2,2,2
2025-09-03 12:59:58.216,-7567900,7419376,7572706,1929849,2,2,2,2
2025-09-03 12:59:58.219,-3373577,7435781,7572729,1913541,2,2,2,2
2025-09-03 12:59:58.222,-7567829,7435906,7589239,1929745,2,2,2,2
2025-09-03 12:59:58.224,-3373325,7435778,7572988,1913522,2,2,2,2
2025-09-03 12:59:58.227,-7567754,3241618,7572944,4027163,2,2,2,2
2025-09-03 12:59:58.229,-7567775,3241603,7572935,4027150,2,2,2,2
2025-09-03 12:59:58.232,-7551242,7435802,3378534,1929962,2,2,2,2
2025-09-03 12:59:58.234,-7567730,3241474,7572740,4027009,2,2,2,2
2025-09-03 12:59:58.237,-7567759,7419598,7572967,1913455,2,2,2,2
2025-09-03 12:59:58.239,-7551335,7435872,3378545,1929977,2,2,2,2
2025-09-03 12:59:58.242,-7567744,7419401,7572750,1929883,2,2,2,2
2025-09-03 12:59:58.245,-7567631,7435901,7589257,1930002,2,2,2,2
2025-09-03 12:59:58.247,-7567872,7435926,7589321,1930093,2,2,2,2
2025-09-03 12:59:58.250,-3373455,7436034,7573011,1913787,2,2,2,2
2025-09-03 12:59:58.252,-3373422,7436086,7573127,1913610,2,2,2,2
2025-09-03 12:59:58.255,-7551283,7436161,7589503,1929999,2,2,2,2
2025-09-03 12:59:58.258,-7551453,7436042,7589394,1930220,2,2,2,2
2025-09-03 12:59:58.260,-3373339,7436261,7573234,1913724,2,2,2,2
2025-09-03 12:59:58.263,-3373418,7436265,7573223,1913719,2,2,2,2
2025-09-03 12:59:58.266,-3373304,7436309,7573277,1914099,2,2,2,2
2025-09-03 12:59:58.268,-7567585,3242105,7573309,4027405,2,2,2,2
2025-09-03 12:59:58.271,-3373063,7436304,7573345,1914098,2,2,2,2
2025-09-03 12:59:58.274,-7567422,7436519,7589879,1930364,2,2,2,2
2025-09-03 12:59:58.276,-3373078,7436302,7573272,1914062,2,2,2,2
2025-09-03 12:59:58.279,-3373069,7436326,7573369,1914116,2,2,2,2
2025-09-03 12:59:58.282,-3373085,7436317,7573367,1914110,2,2,2,2
2025-09-03 12:59:58.284,-3373078,7436329,7573387,1914122,2,2,2,2
2025-09-03 12:59:58.287,-7567352,7436516,7589876,1930627,2,2,2,2
2025-09-03 12:59:58.290,-7567324,7436538,7589905,1930655,2,2,2,2
2025-09-03 12:59:58.292,-3373033,7436532,7573520,1914253,2,2,2,2
2025-09-03 12:59:58.295,-7567482,3242089,7573452,4027661,2,2,2,2
2025-09-03 12:59:58.297,-7567392,3242121,7573498,1930597,2,2,2,2
2025-09-03 12:59:58.300,-3372914,7436737,7573737,1914164,2,2,2,2
2025-09-03 12:59:58.303,-7567240,3242363,7573725,4027664,2,2,2,2
2025-09-03 12:59:58.306,-3373035,7436582,7573638,1914359,2,2,2,2
2025-09-03 12:59:58.308,-7567250,3242369,7573731,4027672,2,2,2,2
2025-09-03 12:59:58.311,-7550861,7436689,3379455,1930795,2,2,2,2
2025-09-03 12:59:58.313,-7550727,7436806,3387774,1930998,2,2,2,2
2025-09-03 12:59:58.316,-7567074,7436927,7590389,1930850,2,2,2,2
2025-09-03 12:59:58.318,-7566903,7437036,7590180,1930891,2,2,2,2
2025-09-03 12:59:58.321,-3372662,7437049,7573861,1914549,2,2,2,2
2025-09-03 12:59:58.323,-3372644,7436816,7573898,1914617,2,2,2,2
2025-09-03 12:59:58.326,-7566946,3242520,7573971,4028164,2,2,2,2
2025-09-03 12:59:58.328,-7550537,7437073,3396238,1931262,2,2,2,2
2025-09-03 12:59:58.331,-7550588,7437061,3388025,1931238,2,2,2,2
2025-09-03 12:59:58.334,-7550257,7437185,3388160,1931305,2,2,2,2
2025-09-03 12:59:58.337,-7566702,3242852,7574247,4028433,2,2,2,2
2025-09-03 12:59:58.339,-3372447,7437067,7574142,1914827,2,2,2,2
2025-09-03 12:59:58.342,-7550457,7437292,3396207,1931159,2,2,2,2
2025-09-03 12:59:58.344,-3372538,7420927,7574145,1914851,2,2,2,2
2025-09-03 12:59:58.347,-7566603,7420916,7574387,1915031,2,2,2,2
2025-09-03 12:59:58.350,-7566714,7421127,7574526,1914988,2,2,2,2
2025-09-03 12:59:58.352,-7550455,7437329,3388310,1931270,2,2,2,2
2025-09-03 12:59:58.355,-7550221,7437335,7590806,1931265,2,2,2,2
2025-09-03 12:59:58.359,-7566699,7421177,7574401,1931423,2,2,2,2
2025-09-03 12:59:58.362,-7550025,7437581,3388546,1931757,2,2,2,2
2025-09-03 12:59:58.365,-7566367,7437595,7591131,1931522,2,2,2,2
2025-09-03 12:59:58.368,-7566586,7421381,7574535,1915238,2,2,2,2
2025-09-03 12:59:58.371,-7566366,3243295,7574768,1931536,2,2,2,2
2025-09-03 12:59:58.374,-7566379,3243295,7574765,1931529,2,2,2,2
2025-09-03 12:59:58.377,-3372269,7437798,7574630,1915283,2,2,2,2
2025-09-03 12:59:58.380,-7566385,7437676,7591148,1931804,2,2,2,2
2025-09-03 12:59:58.383,-7566466,7421282,7574769,1931788,2,2,2,2
2025-09-03 12:59:58.385,-7566309,7421449,7574935,1932029,2,2,2,2
2025-09-03 12:59:58.388,-7566237,7421467,7575015,1915399,2,2,2,2
2025-09-03 12:59:58.391,-7566184,7421581,7574811,1931901,2,2,2,2
2025-09-03 12:59:58.393,-7566106,7438049,7591290,1931919,2,2,2,2
2025-09-03 12:59:58.396,-7549925,7437927,3388927,1932053,2,2,2,2
2025-09-03 12:59:58.399,-7566088,7437829,7591390,1932019,2,2,2,2
2025-09-03 12:59:58.402,-7566334,3243544,7575010,1932047,2,2,2,2
2025-09-03 12:59:58.405,-3371876,7438075,7574928,1915629,2,2,2,2
2025-09-03 12:59:58.407,-3371786,7437858,7575043,1915677,2,2,2,2
2025-09-03 12:59:58.410,-7566106,7438180,7591425,1932057,2,2,2,2
2025-09-03 12:59:58.413,-7566319,7421587,7575148,1932164,2,2,2,2
2025-09-03 12:59:58.416,-7566140,3243787,7575271,1932282,2,2,2,2
2025-09-03 12:59:58.419,-7549770,7438186,3388941,1932070,2,2,2,2
2025-09-03 12:59:58.422,-7566122,7438196,7591442,1932133,2,2,2,2
2025-09-03 12:59:58.425,-3371745,7438091,7575278,1915904,2,2,2,2
2025-09-03 12:59:58.428,-7549636,7438178,3397395,1932389,2,2,2,2
2025-09-03 12:59:58.431,-7565830,7421897,7575442,1932435,2,2,2,2
2025-09-03 12:59:58.433,-3371759,7438355,7575305,1915915,2,2,2,2
2025-09-03 12:59:58.437,-7565965,3244159,7575340,1932405,2,2,2,2
2025-09-03 12:59:58.440,-7549442,7438352,3397624,1932292,2,2,2,2
2025-09-03 12:59:58.443,-3371768,7438362,3381003,1932314,2,2,2,2
2025-09-03 12:59:58.446,-7565888,3244184,7575504,1932434,2,2,2,2
2025-09-03 12:59:58.449,-7565949,7454926,7575447,1916061,2,2,2,2
2025-09-03 12:59:58.452,-7565803,3244162,7575602,1932666,2,2,2,2
2025-09-03 12:59:58.455,-3371417,7438540,7575685,1916338,2,2,2,2
2025-09-03 12:59:58.457,-7565763,7438572,7592163,1932790,2,2,2,2
2025-09-03 12:59:58.460,-7565796,3244436,7575758,4029853,2,2,2,2
2025-09-03 12:59:58.462,-7549388,7438747,3397780,1932764,2,2,2,2
2025-09-03 12:59:58.465,-7549186,7438727,3389585,1932755,2,2,2,2
2025-09-03 12:59:58.467,-7565726,7455216,7575794,1932795,2,2,2,2
2025-09-03 12:59:58.470,-7549284,7438701,3389817,1932992,2,2,2,2
2025-09-03 12:59:58.473,-7565569,7455171,7575783,1932790,2,2,2,2
2025-09-03 12:59:58.475,-7565576,7455153,7575709,1932777,2,2,2,2
2025-09-03 12:59:58.478,-7549375,7438846,3389708,1932821,2,2,2,2
2025-09-03 12:59:58.481,-7565364,7438972,7592398,1932950,2,2,2,2
2025-09-03 12:59:58.483,-7565540,7455281,7575905,1932912,2,2,2,2
2025-09-03 12:59:58.486,-3371034,7439067,7576040,1916665,2,2,2,2
2025-09-03 12:59:58.488,-3371167,7438889,7575928,1916617,2,2,2,2
2025-09-03 12:59:58.491,-3371259,7438867,7576088,1916745,2,2,2,2
2025-09-03 12:59:58.493,-3371261,7438867,7576165,1916782,2,2,2,2
2025-09-03 12:59:58.496,-7565320,3244562,7576099,4030320,2,2,2,2
2025-09-03 12:59:58.498,-7549059,7439006,3390194,1933308,2,2,2,2
2025-09-03 12:59:58.501,-7549052,7439090,3381767,1933069,2,2,2,2
2025-09-03 12:59:58.504,-7548949,7439129,3381874,1933102,2,2,2,2
2025-09-03 12:59:58.506,-7548903,7439250,3390187,1933284,2,2,2,2
2025-09-03 12:59:58.509,-7565058,7455618,7576472,1933459,2,2,2,2
2025-09-03 12:59:58.511,-7565282,7439336,7592710,1933326,2,2,2,2
2025-09-03 12:59:58.514,-7565297,7439261,7592702,1933304,2,2,2,2
2025-09-03 12:59:58.516,-7548885,7439108,7592733,1933339,2,2,2,2
2025-09-03 12:59:58.519,-7565062,7455644,7576320,1933560,2,2,2,2
2025-09-03 12:59:58.522,-3370858,7439298,7576555,1949883,2,2,2,2
2025-09-03 12:59:58.524,-3370978,7439375,7576432,1949810,2,2,2,2
2025-09-03 12:59:58.527,-7565182,3245175,7576544,1933461,2,2,2,2
2025-09-03 12:59:58.529,-7564959,3245084,7576634,4030837,2,2,2,2
2025-09-03 12:59:58.532,-3370600,7439576,7576587,1950207,2,2,2,2
2025-09-03 12:59:58.535,-7565031,3245164,7576795,4030868,2,2,2,2
2025-09-03 12:59:58.538,-7565064,3245068,7576774,4030838,2,2,2,2
2025-09-03 12:59:58.540,-7564933,3245281,7576600,1933574,2,2,2,2
2025-09-03 12:59:58.543,-7548427,7439719,3390613,1933779,2,2,2,2
2025-09-03 12:59:58.545,-7565025,3245453,7576833,1933820,2,2,2,2
2025-09-03 12:59:58.548,-7548459,7439871,7593334,1933925,2,2,2,2
2025-09-03 12:59:58.552,-3354135,7439728,3382752,1934036,2,2,2,2
2025-09-03 12:59:58.555,-7564648,3245673,7577065,1933972,2,2,2,2
2025-09-03 12:59:58.557,-7564664,3245668,7577060,4031123,2,2,2,2
2025-09-03 12:59:58.560,-3370255,7440076,7577115,1950463,2,2,2,2
2025-09-03 12:59:58.563,-7548186,7440020,3390999,1934080,2,2,2,2
2025-09-03 12:59:58.565,-7548294,7439983,3391222,1934296,2,2,2,2
2025-09-03 12:59:58.568,-7564508,7440231,7593714,1934218,2,2,2,2
2025-09-03 12:59:58.570,-7564503,7440237,7593718,1934238,2,2,2,2
2025-09-03 12:59:58.573,-3353738,7440256,3383040,1934325,2,2,2,2
2025-09-03 12:59:58.576,-7564330,7440352,7593807,1934359,2,2,2,2
2025-09-03 12:59:58.578,-7564342,7440354,7593778,1934360,2,2,2,2
2025-09-03 12:59:58.581,-7564410,3246051,7577392,1934353,2,2,2,2
2025-09-03 12:59:58.584,-7564423,3246050,7577401,1934363,2,2,2,2
2025-09-03 12:59:58.587,-7564314,7440489,7593970,1934485,2,2,2,2
2025-09-03 12:59:58.590,-3370107,7440395,7577495,1950851,2,2,2,2
2025-09-03 12:59:58.592,-3369999,7440182,7577354,1950924,2,2,2,2
2025-09-03 12:59:58.595,-7564306,3246201,7593995,4031731,2,2,2,2
2025-09-03 12:59:58.598,-7564129,3246190,7593987,4031974,2,2,2,2
2025-09-03 12:59:58.600,-3369843,7457076,7594243,1951216,2,2,2,2
2025-09-03 12:59:58.603,-7547791,7440664,3391734,1934812,2,2,2,2
2025-09-03 12:59:58.606,-7547713,7440779,3400039,1934868,2,2,2,2
2025-09-03 12:59:58.609,-3361771,7440648,3399830,1934787,2,2,2,2
2025-09-03 12:59:58.612,-7564085,3246467,7594260,1934846,2,2,2,2
2025-09-03 12:59:58.615,-7564256,3246436,7594235,1934747,2,2,2,2
2025-09-03 12:59:58.618,-7547669,7440885,7594385,1934956,2,2,2,2
2025-09-03 12:59:58.621,-7564069,3246577,7594454,1934952,2,2,2,2
2025-09-03 12:59:58.624,-7564042,7457033,7594486,1934990,2,2,2,2
2025-09-03 12:59:58.626,-7564159,7457254,7594391,1934949,2,2,2,2
2025-09-03 12:59:58.629,-7564064,7440641,7594444,1934977,2,2,2,2
2025-09-03 12:59:58.631,-3361542,7440688,7594268,1951476,2,2,2,2
2025-09-03 12:59:58.634,-7564004,3246744,7594693,1935201,2,2,2,2
2025-09-03 12:59:58.636,-7563894,3246600,7594747,4032410,2,2,2,2
2025-09-03 12:59:58.639,-3361167,7441148,7594729,1951627,2,2,2,2
2025-09-03 12:59:58.642,-3361177,7441133,3400430,1935166,2,2,2,2
2025-09-03 12:59:58.645,-7563786,7457456,7594622,1935125,2,2,2,2
2025-09-03 12:59:58.648,-7547368,7441150,3400421,1935300,2,2,2,2
2025-09-03 12:59:58.651,-7563806,3246715,7594553,1935117,2,2,2,2
2025-09-03 12:59:58.653,-7547269,7441178,3392352,1935346,2,2,2,2
2025-09-03 12:59:58.656,-7563745,3246860,7594763,4032666,2,2,2,2
2025-09-03 12:59:58.659,-7547208,7441287,3392382,1935387,2,2,2,2
2025-09-03 12:59:58.662,-7563752,3246858,7594758,4032666,2,2,2,2
2025-09-03 12:59:58.664,-7563659,3246959,7594789,4032515,2,2,2,2
2025-09-03 12:59:58.667,-7547143,7441405,3392503,1935571,2,2,2,2
2025-09-03 12:59:58.669,-7563280,7458042,7595012,1952140,2,2,2,2
2025-09-03 12:59:58.672,-7563507,3247203,7595047,1935602,2,2,2,2
2025-09-03 12:59:58.675,-7547313,7441286,3392411,1935389,2,2,2,2
2025-09-03 12:59:58.677,-7547266,7441379,3400704,1935420,2,2,2,2
2025-09-03 12:59:58.680,-7563653,7457767,7594992,1935481,2,2,2,2
2025-09-03 12:59:58.682,-7563518,7441518,7595131,1935621,2,2,2,2
2025-09-03 12:59:58.685,-7563289,7457850,7595108,1935866,2,2,2,2
2025-09-03 12:59:58.688,-7563290,7441519,7595126,1935629,2,2,2,2
2025-09-03 12:59:58.690,-7563270,7441529,7595190,1935646,2,2,2,2
2025-09-03 12:59:58.693,-3360996,7441650,7595270,1952142,2,2,2,2
2025-09-03 12:59:58.695,-7563363,3247460,7595459,4033032,2,2,2,2
2025-09-03 12:59:58.698,-7546945,7441777,3401098,1935883,2,2,2,2
2025-09-03 12:59:58.701,-7563403,3247377,7595301,1935853,2,2,2,2
2025-09-03 12:59:58.703,-7563385,7458123,7595392,1952260,2,2,2,2
2025-09-03 12:59:58.705,-7563421,7458069,7595379,1935847,2,2,2,2
2025-09-03 12:59:58.708,-7563459,7441791,7595448,1935890,2,2,2,2
2025-09-03 12:59:58.710,-3360782,7441905,7595279,1952464,2,2,2,2
2025-09-03 12:59:58.713,-7563027,7441899,7595532,1936020,2,2,2,2
2025-09-03 12:59:58.716,-7563063,7442063,7595764,1936246,2,2,2,2
2025-09-03 12:59:58.719,-7563024,7442174,7595589,1936353,2,2,2,2
2025-09-03 12:59:58.721,-7562966,7442055,7595721,1936243,2,2,2,2
2025-09-03 12:59:58.724,-3368572,7442155,7595786,1952652,2,2,2,2
2025-09-03 12:59:58.726,-7562909,3248013,7596007,1936495,2,2,2,2
2025-09-03 12:59:58.729,-7562869,3247867,7595807,4033522,2,2,2,2
2025-09-03 12:59:58.732,-7562992,3247748,7595747,1936246,2,2,2,2
2025-09-03 12:59:58.735,-7563203,7441923,7595597,1936362,2,2,2,2
2025-09-03 12:59:58.737,-3360615,7441955,7595659,1952522,2,2,2,2
2025-09-03 12:59:58.740,-3368822,7441945,7595656,1952525,2,2,2,2
2025-09-03 12:59:58.743,-3360372,7442210,7595928,1952796,2,2,2,2
2025-09-03 12:59:58.745,-3360283,7442227,3401707,1936433,2,2,2,2
2025-09-03 12:59:58.748,-7562852,3248019,7595776,4033666,2,2,2,2
2025-09-03 12:59:58.750,-3368476,7442392,7595780,1952907,2,2,2,2
2025-09-03 12:59:58.753,-7546418,7442419,3401757,1936542,2,2,2,2
2025-09-03 12:59:58.756,-7562770,3248114,7596070,4033775,2,2,2,2
2025-09-03 12:59:58.759,-7546380,7442421,7596140,1936619,2,2,2,2
2025-09-03 12:59:58.761,-7562743,7442450,7596188,1936667,2,2,2,2
2025-09-03 12:59:58.764,-7562596,3256560,7596071,4034030,2,2,2,2
2025-09-03 12:59:58.766,-7562602,3256559,7596084,4034036,2,2,2,2
2025-09-03 12:59:58.770,-3352054,7442549,3401964,1936691,2,2,2,2
2025-09-03 12:59:58.773,-7562615,7459061,7596406,1953279,2,2,2,2
2025-09-03 12:59:58.776,-7562519,7459143,7596526,1953392,2,2,2,2
2025-09-03 12:59:58.778,-7546145,7442793,3402213,1937011,2,2,2,2
2025-09-03 12:59:58.781,-7545998,7442936,3393920,1937149,2,2,2,2
2025-09-03 12:59:58.784,-7562488,3256818,7596324,4034200,2,2,2,2
2025-09-03 12:59:58.787,-3359896,7442700,7596443,1953295,2,2,2,2
2025-09-03 12:59:58.790,-3368221,7442905,7596386,1953472,2,2,2,2
2025-09-03 12:59:58.793,-7562529,7442835,7596348,1937052,2,2,2,2
2025-09-03 12:59:58.795,-7562264,7442920,7596656,1937129,2,2,2,2
2025-09-03 12:59:58.798,-7562468,7459387,7596783,1953643,2,2,2,2
2025-09-03 12:59:58.801,-7562393,7459446,7596557,1937284,2,2,2,2
2025-09-03 12:59:58.803,-7562092,7459525,7596929,1937400,2,2,2,2
2025-09-03 12:59:58.806,-7545657,7443185,3394441,1937406,2,2,2,2
2025-09-03 12:59:58.809,-7562227,7459659,7596801,1945721,2,2,2,2
2025-09-03 12:59:58.812,-7562113,7459784,7596917,1945849,2,2,2,2
2025-09-03 12:59:58.814,-7562026,7443207,7596986,1937429,2,2,2,2
2025-09-03 12:59:58.817,-7562015,7443219,7597047,1937523,2,2,2,2
2025-09-03 12:59:58.819,-3351310,7443312,3402511,1937607,2,2,2,2
2025-09-03 12:59:58.822,-3359518,7443239,7597054,1953912,2,2,2,2
2025-09-03 12:59:58.824,-7562196,7443449,7596948,1937428,2,2,2,2
2025-09-03 12:59:58.827,-7562120,3257102,7597027,4034656,2,2,2,2
2025-09-03 12:59:58.830,-7562001,3257221,7597100,4034787,2,2,2,2
2025-09-03 12:59:58.832,-3359724,7443441,7596949,1953807,2,2,2,2
2025-09-03 12:59:58.835,-7545723,7443315,3402769,1937541,2,2,2,2
2025-09-03 12:59:58.838,-7562111,3257199,7597068,4034701,2,2,2,2
2025-09-03 12:59:58.840,-3367790,7443394,7597155,1954023,2,2,2,2
2025-09-03 12:59:58.843,-7562090,3257245,7597251,1937675,2,2,2,2
2025-09-03 12:59:58.846,-7545549,7443555,3402763,1937792,2,2,2,2
2025-09-03 12:59:58.848,-3367679,7443471,7597307,1954167,2,2,2,2
2025-09-03 12:59:58.851,-7561872,3257474,7597251,4035062,2,2,2,2
2025-09-03 12:59:58.854,-7561986,3257372,7597079,1937807,2,2,2,2
2025-09-03 12:59:58.857,-7561736,7459945,7597341,1937810,2,2,2,2
2025-09-03 12:59:58.859,-7561865,7460064,7597542,1946127,2,2,2,2
2025-09-03 12:59:58.862,-7545377,7443809,7597335,1938041,2,2,2,2
2025-09-03 12:59:58.864,-7561685,7443937,7597467,1937936,2,2,2,2
2025-09-03 12:59:58.867,-7545160,7443814,3403295,1938051,2,2,2,2
2025-09-03 12:59:58.870,-7545290,7443741,7597592,1938047,2,2,2,2
2025-09-03 12:59:58.873,-3350935,7443976,3403274,1938222,2,2,2,2
2025-09-03 12:59:58.876,-7545231,7444066,3403367,1938330,2,2,2,2
2025-09-03 12:59:58.879,-3367294,7444029,7597697,1954803,2,2,2,2
2025-09-03 12:59:58.882,-3367322,7444006,7597672,1954746,2,2,2,2
2025-09-03 12:59:58.885,-7561525,7444197,7597727,1938194,2,2,2,2
2025-09-03 12:59:58.887,-7561474,3257863,7597852,4035453,2,2,2,2
2025-09-03 12:59:58.890,-7561241,3258114,7597835,4035697,2,2,2,2
2025-09-03 12:59:58.892,-7561332,3258083,7598067,1938452,2,2,2,2
2025-09-03 12:59:58.895,-7545087,7444253,3403635,1938563,2,2,2,2
2025-09-03 12:59:58.897,-7561243,3250017,7597870,1938563,2,2,2,2
2025-09-03 12:59:58.900,-7561220,7460724,7597976,1955044,2,2,2,2
2025-09-03 12:59:58.903,-7561276,7444223,7597853,1938539,2,2,2,2
2025-09-03 12:59:58.905,-7561262,3249943,7597874,1938562,2,2,2,2
2025-09-03 12:59:58.908,-7561277,3249944,7597870,1938562,2,2,2,2
2025-09-03 12:59:58.911,-7561442,7460555,7597836,1954846,2,2,2,2
2025-09-03 12:59:58.914,-7544951,7444240,3395434,1938495,2,2,2,2
2025-09-03 12:59:58.917,-7561443,7444478,7598095,1938541,2,2,2,2
2025-09-03 12:59:58.920,-7561225,7444382,7598327,1938699,2,2,2,2
2025-09-03 12:59:58.922,-7544687,7460992,7598224,1947114,2,2,2,2
2025-09-03 12:59:58.925,-3358471,7444716,3404040,1955108,2,2,2,2
2025-09-03 12:59:58.927,-7544792,7444589,7598469,1938837,2,2,2,2
2025-09-03 12:59:58.930,-7544581,7444481,7598389,1938796,2,2,2,2
2025-09-03 12:59:58.933,-7544680,7461054,7598330,1946977,2,2,2,2
2025-09-03 12:59:58.936,-7544675,7444728,3404050,1938736,2,2,2,2
2025-09-03 12:59:58.939,-7544579,7460902,7598469,1955229,2,2,2,2
2025-09-03 12:59:58.942,-7544777,7444711,3404033,1938969,2,2,2,2
2025-09-03 12:59:58.945,-7544583,7444839,7598480,1939102,2,2,2,2
2025-09-03 12:59:58.948,-7544599,7444759,7598473,1939096,2,2,2,2
2025-09-03 12:59:58.951,-7544589,7461230,7598565,1939181,2,2,2,2
2025-09-03 12:59:58.954,-7544575,7444877,3404279,1938951,2,2,2,2
2025-09-03 12:59:58.957,-7544565,3250660,7598594,4036450,2,2,2,2
2025-09-03 12:59:58.960,-3350168,7444994,7598706,1955716,2,2,2,2
2025-09-03 12:59:58.963,-7544334,7461506,7598855,1947412,2,2,2,2
2025-09-03 12:59:58.965,-7544326,7461526,7598871,1939304,2,2,2,2
2025-09-03 12:59:58.968,-7544080,7445218,7598910,1939559,2,2,2,2
2025-09-03 12:59:58.971,-3357964,7445231,3404655,1939653,2,2,2,2
2025-09-03 12:59:58.973,-7544124,3251076,7599119,1939474,2,2,2,2
2025-09-03 12:59:58.976,-3358183,7445272,7599076,1956077,2,2,2,2
2025-09-03 12:59:58.979,-7544290,7461749,7599100,1955840,2,2,2,2
2025-09-03 12:59:58.982,-7544312,7445370,3404790,1939705,2,2,2,2
2025-09-03 12:59:58.985,-7544085,7461661,7599073,1947802,2,2,2,2
2025-09-03 12:59:58.988,-3358076,7445498,3404930,1939505,2,2,2,2
2025-09-03 12:59:58.991,-3349746,7445374,3404807,1939714,2,2,2,2
2025-09-03 12:59:58.994,-7543968,3251175,7599154,1939740,2,2,2,2
2025-09-03 12:59:58.997,-7543985,7445500,3404943,1939844,2,2,2,2
2025-09-03 12:59:59.000,-7544061,3251355,7599418,1939814,2,2,2,2
2025-09-03 12:59:59.003,-7544014,3251229,7599345,1939860,2,2,2,2
2025-09-03 12:59:59.006,-7544045,3251197,7599313,1939828,2,2,2,2
2025-09-03 12:59:59.009,-7543959,3251221,7599342,1939860,2,2,2,2
2025-09-03 12:59:59.011,-7543931,7445620,3405082,1939964,2,2,2,2
2025-09-03 12:59:59.014,-7543952,3251308,7599378,4037102,2,2,2,2
2025-09-03 12:59:59.017,-3349491,7445778,7599608,1956503,2,2,2,2
2025-09-03 12:59:59.020,-3349396,7445822,7599716,1956598,2,2,2,2
2025-09-03 12:59:59.022,-3357825,7445724,7599489,1956380,2,2,2,2
2025-09-03 12:59:59.025,-3349496,7445800,7599632,1956554,2,2,2,2
2025-09-03 12:59:59.028,-7543823,7445860,7599640,1940207,2,2,2,2
2025-09-03 12:59:59.031,-7543583,7445783,7599624,1940124,2,2,2,2
2025-09-03 12:59:59.033,-3349498,7445822,7599732,1956613,2,2,2,2
2025-09-03 12:59:59.036,-7543616,7446026,7599869,1940361,2,2,2,2
2025-09-03 12:59:59.039,-7543771,7446004,7599846,1940339,2,2,2,2
2025-09-03 12:59:59.041,-3357472,7446051,7599900,1956812,2,2,2,2
2025-09-03 12:59:59.044,-7543505,7446020,7599883,1940376,2,2,2,2
2025-09-03 12:59:59.047,-7543331,7446140,7599948,1940485,2,2,2,2
2025-09-03 12:59:59.049,-3357293,7446070,7599984,1956868,2,2,2,2
2025-09-03 12:59:59.052,-3349234,7446266,7600125,1956999,2,2,2,2
2025-09-03 12:59:59.055,-3349139,7446295,7600226,1957067,2,2,2,2
2025-09-03 12:59:59.057,-7543410,3260286,7600325,4037642,2,2,2,2
2025-09-03 12:59:59.060,-3349091,7446473,7600354,1956971,2,2,2,2
2025-09-03 12:59:59.063,-3349140,7446317,7600253,1956874,2,2,2,2
2025-09-03 12:59:59.065,-7543303,3260171,7600148,4037790,2,2,2,2
2025-09-03 12:59:59.068,-7543306,7446287,3405851,1940705,2,2,2,2
2025-09-03 12:59:59.070,-3349143,7446488,7600282,1956971,2,2,2,2
2025-09-03 12:59:59.073,-7543312,7462712,7600225,1957106,2,2,2,2
2025-09-03 12:59:59.075,-7543298,7462730,7600245,1948935,2,2,2,2
2025-09-03 12:59:59.078,-7543306,7462734,7600247,1948935,2,2,2,2
2025-09-03 12:59:59.081,-7543272,7462846,7600361,1957242,2,2,2,2
2025-09-03 12:59:59.084,-7543178,7462921,3406087,1940891,2,2,2,2
2025-09-03 12:59:59.087,-3357164,7463139,3406082,1940936,2,2,2,2
2025-09-03 12:59:59.090,-3348864,7462931,3406183,1940974,2,2,2,2
2025-09-03 12:59:59.093,-3348968,7463159,3406099,1940950,2,2,2,2
2025-09-03 12:59:59.096,-7542997,7463192,7600765,1941242,2,2,2,2
2025-09-03 12:59:59.099,-7542806,7463398,7600645,1941115,2,2,2,2
2025-09-03 12:59:59.102,-7542902,7463312,7600880,1949286,2,2,2,2
2025-09-03 12:59:59.105,-7542912,7463312,7600883,1949293,2,2,2,2
2025-09-03 12:59:59.107,-7543038,7463198,7600764,1941230,2,2,2,2
2025-09-03 12:59:59.110,-7543010,7463291,7600868,1941265,2,2,2,2
2025-09-03 12:59:59.112,-3348635,7463231,7600878,1957695,2,2,2,2
2025-09-03 12:59:59.115,-3348637,7463373,7600885,1957709,2,2,2,2
2025-09-03 12:59:59.117,-3348384,7463622,7601134,1957706,2,2,2,2
2025-09-03 12:59:59.120,-7542710,7463650,3406597,1941441,2,2,2,2
2025-09-03 12:59:59.123,-7542790,7463548,3406823,1941270,2,2,2,2
2025-09-03 12:59:59.125,-7542826,7463442,3406734,1941503,2,2,2,2
2025-09-03 12:59:59.128,-3348589,7463521,3406737,1941249,2,2,2,2
2025-09-03 12:59:59.131,-7542793,7463567,7601147,1941356,2,2,2,2
2025-09-03 12:59:59.134,-7542760,7463425,7601002,1941473,2,2,2,2
2025-09-03 12:59:59.136,-7542688,7463449,7601022,1949679,2,2,2,2
2025-09-03 12:59:59.139,-7542774,7463681,7601265,1958112,2,2,2,2
2025-09-03 12:59:59.142,-7542592,7463798,7601394,1957909,2,2,2,2
2025-09-03 12:59:59.145,-7542772,7463697,7601296,1949935,2,2,2,2
2025-09-03 12:59:59.148,-7542531,7463704,3406972,1958132,2,2,2,2
2025-09-03 12:59:59.150,-7542535,3261213,7601348,4055278,2,2,2,2
2025-09-03 12:59:59.153,-7542460,7464068,3407106,1958178,2,2,2,2
2025-09-03 12:59:59.156,-7542290,7463985,7601549,1958381,2,2,2,2
2025-09-03 12:59:59.158,-7542517,7464059,3407345,1958166,2,2,2,2
2025-09-03 12:59:59.161,-7542377,7463947,7601543,1950179,2,2,2,2
2025-09-03 12:59:59.164,-7542282,7464050,7601639,1949966,2,2,2,2
2025-09-03 12:59:59.166,-7542466,7464162,3407201,1958336,2,2,2,2
2025-09-03 12:59:59.169,-7542289,7464050,7601649,1958419,2,2,2,2
2025-09-03 12:59:59.172,-7542315,3269736,7601639,1958409,2,2,2,2
2025-09-03 12:59:59.174,-7542209,7464222,7601843,1958403,2,2,2,2
2025-09-03 12:59:59.177,-3356024,7464247,3407589,1958419,2,2,2,2
2025-09-03 12:59:59.179,-3347815,7464325,3407610,1958429,2,2,2,2
2025-09-03 12:59:59.182,-7542034,7464387,7601763,1958530,2,2,2,2
2025-09-03 12:59:59.185,-3347718,7464440,7601785,1958550,2,2,2,2
2025-09-03 12:59:59.188,-7542272,7464196,7601800,1958559,2,2,2,2
2025-09-03 12:59:59.191,-7542249,3261808,7601897,4055557,2,2,2,2
2025-09-03 12:59:59.194,-7542243,3261820,7601912,4055571,2,2,2,2
2025-09-03 12:59:59.197,-7542293,7464252,7601814,1950208,2,2,2,2
2025-09-03 12:59:59.200,-7542017,7464304,7601904,1958681,2,2,2,2
2025-09-03 12:59:59.203,-7542160,7464381,7602034,1958802,2,2,2,2
2025-09-03 12:59:59.205,-7542025,3270250,7602162,1958673,2,2,2,2
2025-09-03 12:59:59.208,-7542054,3270170,7602156,1958659,2,2,2,2
2025-09-03 12:59:59.211,-7542113,3262051,7602164,4055819,2,2,2,2
2025-09-03 12:59:59.214,-7542113,7464525,7602173,1958752,2,2,2,2
2025-09-03 12:59:59.217,-7541953,7464687,3407753,1958880,2,2,2,2
2025-09-03 12:59:59.220,-7541979,3270147,7602139,1958892,2,2,2,2
2025-09-03 12:59:59.223,-3347610,7464464,7602158,1958908,2,2,2,2
2025-09-03 12:59:59.226,-3347573,7464506,7602194,1959019,2,2,2,2
2025-09-03 12:59:59.228,-7541900,3270256,7602186,1958934,2,2,2,2
2025-09-03 12:59:59.231,-3355778,7464644,3407901,1958952,2,2,2,2
2025-09-03 12:59:59.235,-7541786,7464689,3408026,1959125,2,2,2,2
2025-09-03 12:59:59.237,-3347474,7464958,7602335,1959139,2,2,2,2
2025-09-03 12:59:59.240,-7541619,3270628,7602637,1959323,2,2,2,2
2025-09-03 12:59:59.243,-7541740,7464743,7602462,1959188,2,2,2,2
2025-09-03 12:59:59.246,-7541754,7464745,7602449,1959186,2,2,2,2
