Timestamp,Ch1,Ch2,Ch3,Ch4,Ch5,Ch6,Ch7,Ch8
2025-09-03 13:06:33.746,6421116,1342360,1271808,1013532,2,2,2,2
2025-09-03 13:06:33.747,2226823,1342433,1271816,997187,2,2,2,2
2025-09-03 13:06:33.747,6421202,1342444,1255434,1013609,2,2,2,2
2025-09-03 13:06:33.748,2226844,1342451,1271827,997166,2,2,2,2
2025-09-03 13:06:33.748,4324069,1326069,1271834,997227,2,2,2,2
2025-09-03 13:06:33.748,4324089,1325825,1271918,997238,2,2,2,2
2025-09-03 13:06:33.748,2226695,1342218,1271935,997243,2,2,2,2
2025-09-03 13:06:33.748,6421018,1342234,1255567,1013638,2,2,2,2
2025-09-03 13:06:33.748,2226795,1342307,1271964,1013710,2,2,2,2
2025-09-03 13:06:33.748,6421106,1325900,1272039,1013651,2,2,2,2
2025-09-03 13:06:33.748,6421111,1342321,1263852,1013718,2,2,2,2
2025-09-03 13:06:33.749,6421113,1342316,1272039,1013652,2,2,2,2
2025-09-03 13:06:33.749,6421049,1342236,1255610,1013632,2,2,2,2
2025-09-03 13:06:33.749,6421130,1325893,1272034,1013639,2,2,2,2
2025-09-03 13:06:33.749,6421138,1342315,1263847,1013708,2,2,2,2
2025-09-03 13:06:33.749,2226843,1342255,3369200,997299,2,2,2,2
2025-09-03 13:06:33.750,6421233,1342345,1271814,1013740,2,2,2,2
2025-09-03 13:06:33.750,2226971,1342452,3369068,997393,2,2,2,2
2025-09-03 13:06:33.750,6421450,3439716,1255607,1013883,2,2,2,2
2025-09-03 13:06:33.750,6421492,1342600,1263868,1013979,2,2,2,2
2025-09-03 13:06:33.750,2226965,1342696,1272092,997626,2,2,2,2
2025-09-03 13:06:33.751,6421361,1342470,1272117,1013781,2,2,2,2
2025-09-03 13:06:33.751,2227087,1342491,3369357,997418,2,2,2,2
2025-09-03 13:06:33.752,6421471,1342569,1272283,1013870,2,2,2,2
2025-09-03 13:06:33.752,6421492,1342590,1272302,1013884,2,2,2,2
2025-09-03 13:06:33.752,4324374,1326301,1272078,997526,2,2,2,2
2025-09-03 13:06:33.753,6421558,1342713,1255786,1014000,2,2,2,2
2025-09-03 13:06:33.753,2227359,1342753,1272207,1014038,2,2,2,2
2025-09-03 13:06:33.753,6421505,1326467,1272303,1014127,2,2,2,2
2025-09-03 13:06:33.753,6421527,1342867,1272322,1014208,2,2,2,2
2025-09-03 13:06:33.753,4324453,1326554,1272333,997771,2,2,2,2
2025-09-03 13:06:33.754,6421555,1342950,1255996,1014167,2,2,2,2
2025-09-03 13:06:33.754,6421704,1342965,1256046,1014247,2,2,2,2
2025-09-03 13:06:33.754,6421653,1326589,1272442,1014254,2,2,2,2
2025-09-03 13:06:33.754,6421660,1342722,1272446,1014256,2,2,2,2
2025-09-03 13:06:33.754,6421739,1342740,1272529,1014017,2,2,2,2
2025-09-03 13:06:33.754,6421763,1342824,1272553,1014039,2,2,2,2
2025-09-03 13:06:33.754,2227481,1342780,3369474,997703,2,2,2,2
2025-09-03 13:06:33.755,6421797,3440010,1255985,1014125,2,2,2,2
2025-09-03 13:06:33.755,6421883,1342878,1264226,1014072,2,2,2,2
2025-09-03 13:06:33.755,6421941,1342961,1264247,1014218,2,2,2,2
2025-09-03 13:06:33.755,6421991,1342976,1272517,1014169,2,2,2,2
2025-09-03 13:06:33.755,2227682,1342966,3369599,997772,2,2,2,2
2025-09-03 13:06:33.755,6421978,1342951,1255986,1014137,2,2,2,2
2025-09-03 13:06:33.756,6421971,3440028,1255981,1014124,2,2,2,2
2025-09-03 13:06:33.756,4324757,1326558,1272430,997740,2,2,2,2
2025-09-03 13:06:33.756,6421949,1342947,1256054,1014127,2,2,2,2
2025-09-03 13:06:33.756,2227702,1342971,1272462,1014212,2,2,2,2
2025-09-03 13:06:33.756,2227464,1342987,1272544,997843,2,2,2,2
2025-09-03 13:06:33.756,6421782,3440145,1256171,1014171,2,2,2,2
2025-09-03 13:06:33.756,4324714,1326652,1272569,997861,2,2,2,2
2025-09-03 13:06:33.757,6421813,1343076,1256193,1014250,2,2,2,2
2025-09-03 13:06:33.757,6421954,1343089,1256204,1014254,2,2,2,2
2025-09-03 13:06:33.757,2227701,1343201,1272699,1014300,2,2,2,2
2025-09-03 13:06:33.757,2227732,1342976,1272726,998009,2,2,2,2
2025-09-03 13:06:33.758,2227819,1342999,1272810,998026,2,2,2,2
2025-09-03 13:06:33.758,6422218,1343088,1256195,1014431,2,2,2,2
2025-09-03 13:06:33.758,6422019,1343130,1264501,1014283,2,2,2,2
2025-09-03 13:06:33.758,6422112,1343218,1264530,1014310,2,2,2,2
2025-09-03 13:06:33.759,6422144,1343243,1272811,1014397,2,2,2,2
2025-09-03 13:06:33.759,6422252,1343345,1272851,1014496,2,2,2,2
2025-09-03 13:06:33.759,6422368,1327072,1272960,1014536,2,2,2,2
2025-09-03 13:06:33.759,6422392,1327098,1272981,1014554,2,2,2,2
2025-09-03 13:06:33.760,6422400,1343237,1273059,1014563,2,2,2,2
2025-09-03 13:06:33.760,6422411,1343244,1264875,1014566,2,2,2,2
2025-09-03 13:06:33.760,2228120,1343248,3370223,998184,2,2,2,2
2025-09-03 13:06:33.761,2228199,1343259,3370232,998190,2,2,2,2
2025-09-03 13:06:33.761,6422510,3440412,1256699,1014634,2,2,2,2
2025-09-03 13:06:33.761,6422514,1343256,1273087,1014636,2,2,2,2
2025-09-03 13:06:33.761,6422513,1343245,1273084,1014631,2,2,2,2
2025-09-03 13:06:33.762,6422511,1343239,1273078,1014559,2,2,2,2
2025-09-03 13:06:33.762,2227970,1343258,3369993,998256,2,2,2,2
2025-09-03 13:06:33.762,2228066,1343289,1272933,1014730,2,2,2,2
2025-09-03 13:06:33.762,4325235,1327048,1272950,998294,2,2,2,2
2025-09-03 13:06:33.763,4325265,1327072,1272978,998382,2,2,2,2
2025-09-03 13:06:33.763,6422468,1343469,1256677,1014780,2,2,2,2
2025-09-03 13:06:33.763,6422522,1343484,1256698,1014540,2,2,2,2
2025-09-03 13:06:33.763,6357016,3440662,1256718,1014559,2,2,2,2
2025-09-03 13:06:33.764,6357105,1343598,1273189,1014580,2,2,2,2
2025-09-03 13:06:33.764,6357116,1343605,1273133,1014650,2,2,2,2
2025-09-03 13:06:33.764,6357129,1343616,1273146,1014657,2,2,2,2
2025-09-03 13:06:33.764,6357222,1360029,1273238,1014680,2,2,2,2
2025-09-03 13:06:33.765,6357012,1359884,1273089,1014782,2,2,2,2
2025-09-03 13:06:33.765,6357118,1343598,1265001,1014815,2,2,2,2
2025-09-03 13:06:33.765,2162839,1343683,3370366,998479,2,2,2,2
2025-09-03 13:06:33.765,2162919,1343689,3370380,998520,2,2,2,2
2025-09-03 13:06:33.766,2162938,1343702,1273243,1014978,2,2,2,2
2025-09-03 13:06:33.766,6357264,3440877,1256941,1014936,2,2,2,2
2025-09-03 13:06:33.766,6357359,1343759,1273354,1015032,2,2,2,2
2025-09-03 13:06:33.766,6357371,1343770,1273368,1015038,2,2,2,2
2025-09-03 13:06:33.767,2163168,1343940,1273471,998425,2,2,2,2
2025-09-03 13:06:33.767,4260347,1360314,1273496,998508,2,2,2,2
2025-09-03 13:06:33.767,4260116,1360331,1273583,998524,2,2,2,2
2025-09-03 13:06:33.768,2163045,1343989,1273599,998534,2,2,2,2
2025-09-03 13:06:33.768,6357310,1343757,1256981,1014934,2,2,2,2
2025-09-03 13:06:33.768,6357469,3440997,1257009,1015025,2,2,2,2
2025-09-03 13:06:33.768,2163189,1343867,1273477,1015047,2,2,2,2
2025-09-03 13:06:33.769,6357516,1343884,1273558,1015062,2,2,2,2
2025-09-03 13:06:33.769,2163231,1343960,1273568,998755,2,2,2,2
2025-09-03 13:06:33.770,6357749,1360445,1273709,1015270,2,2,2,2
2025-09-03 13:06:33.770,6357509,1344105,1265532,1015283,2,2,2,2
2025-09-03 13:06:33.770,2163225,1344055,3370896,998661,2,2,2,2
2025-09-03 13:06:33.770,2163315,1344206,1273833,998715,2,2,2,2
2025-09-03 13:06:33.771,6357710,1344226,1257217,1015149,2,2,2,2
2025-09-03 13:06:33.771,6357738,1360638,1273628,1015174,2,2,2,2
2025-09-03 13:06:33.771,6357761,1344021,1273651,1015196,2,2,2,2
2025-09-03 13:06:33.771,6357763,1344026,1273654,1015194,2,2,2,2
2025-09-03 13:06:33.772,6357768,1344030,1273658,1015197,2,2,2,2
2025-09-03 13:06:33.772,2163481,1344040,3370885,998887,2,2,2,2
2025-09-03 13:06:33.772,6357874,1344127,1273753,1015292,2,2,2,2
2025-09-03 13:06:33.772,6357956,1344145,1273830,1015302,2,2,2,2
2025-09-03 13:06:33.773,2163613,1360611,1273845,998934,2,2,2,2
2025-09-03 13:06:33.773,6357998,1344237,1257470,1015394,2,2,2,2
2025-09-03 13:06:33.773,6358013,3441399,1257483,1015406,2,2,2,2
2025-09-03 13:06:33.773,6357778,3441415,1257531,1015416,2,2,2,2
2025-09-03 13:06:33.774,6357789,1344278,1273893,1015423,2,2,2,2
2025-09-03 13:06:33.774,4260711,1360668,1273963,999041,2,2,2,2
2025-09-03 13:06:33.775,6358001,1360796,1274092,1015539,2,2,2,2
2025-09-03 13:06:33.775,6358021,1344493,1274111,1015297,2,2,2,2
2025-09-03 13:06:33.775,2163731,1344505,1273869,998924,2,2,2,2
2025-09-03 13:06:33.775,2163740,1344510,1273883,998962,2,2,2,2
2025-09-03 13:06:33.776,6358069,1344277,1257590,1015399,2,2,2,2
2025-09-03 13:06:33.776,6358169,1344374,1274067,1015428,2,2,2,2
2025-09-03 13:06:33.776,6358222,1344383,1274081,1015505,2,2,2,2
2025-09-03 13:06:33.777,6358021,1344397,1274100,1015521,2,2,2,2
2025-09-03 13:06:33.777,2163736,1344474,3371266,999116,2,2,2,2
2025-09-03 13:06:33.777,6358128,1360880,1274134,1015547,2,2,2,2
2025-09-03 13:06:33.777,6358150,1360899,1274222,1015563,2,2,2,2
2025-09-03 13:06:33.778,6358174,1344535,1274243,1015581,2,2,2,2
2025-09-03 13:06:33.778,6358248,1344541,1274318,1015653,2,2,2,2
2025-09-03 13:06:33.778,2163974,1344565,1274340,1015610,2,2,2,2
2025-09-03 13:06:33.778,2163992,1344712,1274359,999369,2,2,2,2
2025-09-03 13:06:33.779,6358306,3441810,1257728,1015695,2,2,2,2
2025-09-03 13:06:33.779,4261232,1361085,1274127,999322,2,2,2,2
2025-09-03 13:06:33.779,6358489,1344766,1257844,1015798,2,2,2,2
2025-09-03 13:06:33.780,2164207,1344528,3371398,999423,2,2,2,2
2025-09-03 13:06:33.780,6358522,3441688,1257871,1015556,2,2,2,2
2025-09-03 13:06:33.780,2163968,1344536,1274263,999177,2,2,2,2
2025-09-03 13:06:33.780,2163982,1344549,1274344,999192,2,2,2,2
2025-09-03 13:06:33.781,6358309,1344636,1257982,1015661,2,2,2,2
2025-09-03 13:06:33.781,6358477,1344737,1274404,1015687,2,2,2,2
2025-09-03 13:06:33.781,6358426,1344745,1274478,1015757,2,2,2,2
2025-09-03 13:06:33.782,6358525,1344776,1274579,1015784,2,2,2,2
2025-09-03 13:06:33.782,6358548,1344793,1258215,1015798,2,2,2,2
2025-09-03 13:06:33.782,6358644,1361271,1274368,1015822,2,2,2,2
2025-09-03 13:06:33.782,6358673,1361294,1274395,1015909,2,2,2,2
2025-09-03 13:06:33.783,6358685,1344915,1274467,1015851,2,2,2,2
2025-09-03 13:06:33.783,6358759,1344923,1274407,1015919,2,2,2,2
2025-09-03 13:06:33.783,6358779,1345005,1258105,1015936,2,2,2,2
2025-09-03 13:06:33.783,2164247,1344773,3371666,1032406,2,2,2,2
2025-09-03 13:06:33.784,6358646,1361183,1274605,1016050,2,2,2,2
2025-09-03 13:06:33.784,6358674,1344890,1274634,1015816,2,2,2,2
2025-09-03 13:06:33.784,6358768,1344918,1274663,1015905,2,2,2,2
2025-09-03 13:06:33.784,6358789,1344998,1274680,1015918,2,2,2,2
2025-09-03 13:06:33.785,2164492,1345004,3371901,1032270,2,2,2,2
2025-09-03 13:06:33.785,6358819,3442178,1258423,1015934,2,2,2,2
2025-09-03 13:06:33.785,6358924,1345133,1274624,1016036,2,2,2,2
2025-09-03 13:06:33.785,4261861,1361605,1274650,1032442,2,2,2,2
2025-09-03 13:06:33.786,6359014,1345150,1258259,1016052,2,2,2,2
2025-09-03 13:06:33.787,6359030,1345161,1258269,1016054,2,2,2,2
2025-09-03 13:06:33.788,6358786,3442321,1258281,1016062,2,2,2,2
2025-09-03 13:06:33.788,4261652,1361635,1274745,1032464,2,2,2,2
2025-09-03 13:06:33.788,2164595,1345276,1274774,1032521,2,2,2,2
2025-09-03 13:06:33.788,6358914,1361414,1274783,1016179,2,2,2,2
2025-09-03 13:06:33.788,6358926,1361420,1274856,1016179,2,2,2,2
2025-09-03 13:06:33.789,6358939,1345045,1274867,1016118,2,2,2,2
2025-09-03 13:06:33.789,6359014,1345047,1274873,1016188,2,2,2,2
2025-09-03 13:06:33.789,6359012,1345043,1258485,1016178,2,2,2,2
2025-09-03 13:06:33.789,6359016,1345040,1258481,1016173,2,2,2,2
2025-09-03 13:06:33.789,6359028,1361421,1274858,1016163,2,2,2,2
2025-09-03 13:06:33.789,6359043,1345047,1274867,1016166,2,2,2,2
2025-09-03 13:06:33.790,6359061,1345130,1274885,1016184,2,2,2,2
2025-09-03 13:06:33.790,2164841,1345085,3372063,1032589,2,2,2,2
2025-09-03 13:06:33.790,2164864,1345239,1274998,1032674,2,2,2,2
2025-09-03 13:06:33.790,6359190,1345257,1275019,1016305,2,2,2,2
2025-09-03 13:06:33.791,6359281,1345283,1275107,1016071,2,2,2,2
2025-09-03 13:06:33.791,6359053,1345377,1275134,1016164,2,2,2,2
2025-09-03 13:06:33.791,6359148,1345406,1274905,1016194,2,2,2,2
2025-09-03 13:06:33.791,6359245,3442587,1258552,1016222,2,2,2,2
2025-09-03 13:06:33.791,6359273,3442681,1258706,1016308,2,2,2,2
2025-09-03 13:06:33.792,4262131,1361664,1275028,1032694,2,2,2,2
2025-09-03 13:06:33.792,2164993,1345291,1275039,1032698,2,2,2,2
2025-09-03 13:06:33.792,2165019,1345314,3372281,1032720,2,2,2,2
2025-09-03 13:06:33.793,2165148,1345432,1275254,1016518,2,2,2,2
2025-09-03 13:06:33.793,6359539,1345513,1275338,1016467,2,2,2,2
2025-09-03 13:06:33.793,6359307,1345531,1258911,1016547,2,2,2,2
2025-09-03 13:06:33.793,6359330,1345550,1258997,1016562,2,2,2,2
2025-09-03 13:06:33.794,6359425,1362018,1275143,1016572,2,2,2,2
2025-09-03 13:06:33.794,4262292,1361971,1275163,1032717,2,2,2,2
2025-09-03 13:06:33.794,6359451,1345655,1275168,1016334,2,2,2,2
2025-09-03 13:06:33.795,2165222,1345729,1275241,1032719,2,2,2,2
2025-09-03 13:06:33.795,6359550,1345683,1258881,1016418,2,2,2,2
2025-09-03 13:06:33.795,6359566,1345763,1275278,1016367,2,2,2,2
2025-09-03 13:06:33.795,6359648,1345776,1275289,1016381,2,2,2,2
2025-09-03 13:06:33.796,6359669,1345791,1275371,1016525,2,2,2,2
2025-09-03 13:06:33.796,6359684,1345544,1275383,1016463,2,2,2,2
2025-09-03 13:06:33.796,6359749,3442696,1259002,1016461,2,2,2,2
2025-09-03 13:06:33.796,6359763,3442706,1259015,1016471,2,2,2,2
2025-09-03 13:06:33.797,6359798,1362039,1275501,1016568,2,2,2,2
2025-09-03 13:06:33.797,4262507,1362152,1275551,1033063,2,2,2,2
2025-09-03 13:06:33.797,2165391,1345796,3372544,1033091,2,2,2,2
2025-09-03 13:06:33.797,2165405,1345803,3372555,1033098,2,2,2,2
2025-09-03 13:06:33.798,2165491,1345823,1275488,1016798,2,2,2,2
2025-09-03 13:06:33.798,6359819,3443059,1259057,1016813,2,2,2,2
2025-09-03 13:06:33.798,6359876,1345930,1259145,1016577,2,2,2,2
2025-09-03 13:06:33.798,6359938,1346021,1259235,1016605,2,2,2,2
2025-09-03 13:06:33.799,6360027,1346042,1259256,1016684,2,2,2,2
2025-09-03 13:06:33.799,6360042,1362182,1275651,1016689,2,2,2,2
2025-09-03 13:06:33.799,4262907,1362231,1275672,1033088,2,2,2,2
2025-09-03 13:06:33.799,6359810,1345822,1275678,1016708,2,2,2,2
2025-09-03 13:06:33.800,2165508,1345821,1275747,1033088,2,2,2,2
2025-09-03 13:06:33.800,6359816,1345823,1259365,1016703,2,2,2,2
2025-09-03 13:06:33.800,2165520,1345893,1275754,1016769,2,2,2,2
2025-09-03 13:06:33.800,6359907,1362298,1275774,1016720,2,2,2,2
2025-09-03 13:06:33.801,6359934,1345935,1275802,1016803,2,2,2,2
2025-09-03 13:06:33.801,6359957,1345951,1275884,1016822,2,2,2,2
2025-09-03 13:06:33.801,6360074,1346055,1259317,1016929,2,2,2,2
2025-09-03 13:06:33.802,6360084,1362446,1275676,1016936,2,2,2,2
2025-09-03 13:06:33.802,6360168,1346079,1275758,1016884,2,2,2,2
2025-09-03 13:06:33.802,2165894,1346106,3372938,1033354,2,2,2,2
2025-09-03 13:06:33.802,6360219,1346187,1275868,1016991,2,2,2,2
2025-09-03 13:06:33.803,2165989,1346258,3372958,1033442,2,2,2,2
2025-09-03 13:06:33.803,6360307,3443356,1259463,1017069,2,2,2,2
2025-09-03 13:06:33.803,6360070,1346288,1275897,1017080,2,2,2,2
2025-09-03 13:06:33.803,6360163,1346057,1275928,1016845,2,2,2,2
2025-09-03 13:06:33.804,6360184,1346072,1275945,1016860,2,2,2,2
2025-09-03 13:06:33.804,2165891,1346076,3373165,1033245,2,2,2,2
2025-09-03 13:06:33.804,6360284,1346159,1276100,1016940,2,2,2,2
2025-09-03 13:06:33.804,4263142,1362553,1276046,1016948,2,2,2,2
2025-09-03 13:06:33.805,4263158,1362628,1276056,1033340,2,2,2,2
2025-09-03 13:06:33.805,6360334,1346200,1259756,1016975,2,2,2,2
2025-09-03 13:06:33.805,2166125,1346291,1275907,1017062,2,2,2,2
2025-09-03 13:06:33.805,2166147,1346309,1275930,1017079,2,2,2,2
2025-09-03 13:06:33.806,6360477,1346330,1276015,1017099,2,2,2,2
2025-09-03 13:06:33.806,4263418,1362734,1276036,1033573,2,2,2,2
2025-09-03 13:06:33.806,6360340,1346433,1259707,1017208,2,2,2,2
2025-09-03 13:06:33.806,6360372,1346457,1259765,1017228,2,2,2,2
2025-09-03 13:06:33.807,6360456,1362926,1276172,1017247,2,2,2,2
2025-09-03 13:06:33.807,6360478,1346311,1276262,1017332,2,2,2,2
2025-09-03 13:06:33.808,6360570,1346405,1276358,1017103,2,2,2,2
2025-09-03 13:06:33.809,6360598,1346434,1276383,1017188,2,2,2,2
2025-09-03 13:06:33.809,2166383,1346520,3373562,1033589,2,2,2,2
2025-09-03 13:06:33.809,6360630,3443610,1260031,1017208,2,2,2,2
2025-09-03 13:06:33.809,6360698,1346457,1276160,1017141,2,2,2,2
2025-09-03 13:06:33.810,6360701,1346456,1276415,1017134,2,2,2,2
2025-09-03 13:06:33.810,6360704,1346456,1276412,1017192,2,2,2,2
2025-09-03 13:06:33.810,2166413,1346530,3373318,1033551,2,2,2,2
2025-09-03 13:06:33.810,6360795,3443692,1259787,1017204,2,2,2,2
2025-09-03 13:06:33.810,6360803,3443697,1259791,1017206,2,2,2,2
2025-09-03 13:06:33.811,4263675,1362952,1276260,1033610,2,2,2,2
2025-09-03 13:06:33.811,6360586,1346583,1259892,1017237,2,2,2,2
2025-09-03 13:06:33.811,2166299,1346597,1276293,1017313,2,2,2,2
2025-09-03 13:06:33.811,6360627,3443827,1259990,1017331,2,2,2,2
2025-09-03 13:06:33.811,6360705,1346684,1276381,1017337,2,2,2,2
2025-09-03 13:06:33.812,6360789,1346704,1260018,1017352,2,2,2,2
2025-09-03 13:06:33.812,6360798,1346710,1260028,1017353,2,2,2,2
2025-09-03 13:06:33.812,2166517,1346787,1276436,1017357,2,2,2,2
2025-09-03 13:06:33.812,2166541,1346809,1276521,1033759,2,2,2,2
2025-09-03 13:06:33.813,6360942,1346583,1276619,1017467,2,2,2,2
2025-09-03 13:06:33.813,6361045,1346684,1260271,1017499,2,2,2,2
2025-09-03 13:06:33.813,6360839,1346790,1276439,1017348,2,2,2,2
2025-09-03 13:06:33.813,6360934,1346813,1276532,1017375,2,2,2,2
2025-09-03 13:06:33.814,6360968,1346843,1276627,1017469,2,2,2,2
2025-09-03 13:06:33.814,2166758,1346872,1276655,1033908,2,2,2,2
2025-09-03 13:06:33.814,6361084,1363341,1276670,1017572,2,2,2,2
2025-09-03 13:06:33.814,6361101,3444122,1260300,1017583,2,2,2,2
2025-09-03 13:06:33.815,4264050,1363448,1276781,1033996,2,2,2,2
2025-09-03 13:06:33.815,6361265,1346833,1276807,1017633,2,2,2,2
2025-09-03 13:06:33.815,2175200,1346846,3373969,1034026,2,2,2,2
2025-09-03 13:06:33.815,2175135,1346838,3373963,1034052,2,2,2,2
2025-09-03 13:06:33.816,6361313,3443992,1260427,1017696,2,2,2,2
2025-09-03 13:06:33.816,4264172,1363266,1276821,1017708,2,2,2,2
2025-09-03 13:06:33.816,6361089,1346932,1260519,1017729,2,2,2,2
2025-09-03 13:06:33.816,6361121,1346962,1260295,1017756,2,2,2,2
2025-09-03 13:06:33.817,6361226,1363440,1276783,1017847,2,2,2,2
2025-09-03 13:06:33.817,4264166,1363462,1276805,1033998,2,2,2,2
2025-09-03 13:06:33.817,4264194,1363487,1276896,1034086,2,2,2,2
2025-09-03 13:06:33.818,6361401,1347189,1260530,1017720,2,2,2,2
2025-09-03 13:06:33.818,6361380,1347196,1260536,1017725,2,2,2,2
2025-09-03 13:06:33.818,6361448,1347196,1276921,1017660,2,2,2,2
2025-09-03 13:06:33.818,6361475,1347219,1276944,1017803,2,2,2,2
2025-09-03 13:06:33.819,6361575,1347320,1276982,1017832,2,2,2,2
2025-09-03 13:06:33.819,6361596,1347083,1277130,1017846,2,2,2,2
2025-09-03 13:06:33.820,2167153,1347191,1277177,1017889,2,2,2,2
2025-09-03 13:06:33.820,6361481,1347211,1276941,1017903,2,2,2,2
2025-09-03 13:06:33.820,2167199,1347294,3374176,1034368,2,2,2,2
2025-09-03 13:06:33.820,2167283,1347307,3374189,1034379,2,2,2,2
2025-09-03 13:06:33.821,6361613,1347326,1260669,1018012,2,2,2,2
2025-09-03 13:06:33.821,6361638,3444496,1260753,1018092,2,2,2,2
2025-09-03 13:06:33.821,6361716,1347424,1277154,1018105,2,2,2,2
2025-09-03 13:06:33.821,6361747,1347449,1277181,1017872,2,2,2,2
2025-09-03 13:06:33.822,2167453,1347525,3374342,1034294,2,2,2,2
2025-09-03 13:06:33.822,2175713,1347524,3374346,1034258,2,2,2,2
2025-09-03 13:06:33.822,4264684,1363852,1277205,1034264,2,2,2,2
2025-09-03 13:06:33.822,4264692,1363896,1277280,1034271,2,2,2,2
2025-09-03 13:06:33.823,6361847,1347479,1277214,1017884,2,2,2,2
2025-09-03 13:06:33.823,6361850,1347480,1260830,1017880,2,2,2,2
2025-09-03 13:06:33.823,6361614,3444712,1260913,1017960,2,2,2,2
2025-09-03 13:06:33.823,2167409,1347335,1277329,1018053,2,2,2,2
2025-09-03 13:06:33.824,6361804,1347424,1277421,1018008,2,2,2,2
2025-09-03 13:06:33.824,2167535,1347389,1277197,1034481,2,2,2,2
2025-09-03 13:06:33.825,6362013,1364071,1277436,1018259,2,2,2,2
2025-09-03 13:06:33.825,6362108,1347717,1277466,1018351,2,2,2,2
2025-09-03 13:06:33.825,2167578,1347808,1277557,1034496,2,2,2,2
2025-09-03 13:06:33.825,2167668,1347830,1277580,1034549,2,2,2,2
2025-09-03 13:06:33.826,2175874,1347837,3374741,1034524,2,2,2,2
2025-09-03 13:06:33.826,6362064,3444741,1261246,1018208,2,2,2,2
2025-09-03 13:06:33.826,6362098,1347614,1277692,1018231,2,2,2,2
2025-09-03 13:06:33.826,6362175,1347711,1277470,1018328,2,2,2,2
2025-09-03 13:06:33.827,6362223,1355915,1277482,1018342,2,2,2,2
2025-09-03 13:06:33.827,2176111,1347786,3374696,1034689,2,2,2,2
2025-09-03 13:06:33.827,4265065,1364104,1277538,1018270,2,2,2,2
2025-09-03 13:06:33.827,4265058,1364097,1277470,1018265,2,2,2,2
2025-09-03 13:06:33.828,4265075,1364180,1277553,1034728,2,2,2,2
2025-09-03 13:06:33.828,6362325,1347819,1261195,1018370,2,2,2,2
2025-09-03 13:06:33.828,6362349,3444990,1261285,1018390,2,2,2,2
2025-09-03 13:06:33.828,2176021,1347866,1277706,1018419,2,2,2,2
2025-09-03 13:06:33.829,6362237,1347969,1277806,1018578,2,2,2,2
2025-09-03 13:06:33.829,4265190,1364456,1277844,1034998,2,2,2,2
2025-09-03 13:06:33.829,6362408,1347942,1261326,1018476,2,2,2,2
2025-09-03 13:06:33.830,6362491,1364339,1277722,1018489,2,2,2,2
2025-09-03 13:06:33.830,6362508,1347964,1277795,1018561,2,2,2,2
2025-09-03 13:06:33.830,2168222,1348046,1277810,1034890,2,2,2,2
2025-09-03 13:06:33.831,6362604,1356185,1277889,1018517,2,2,2,2
2025-09-03 13:06:33.832,2176510,1348078,3374995,1034944,2,2,2,2
2025-09-03 13:06:33.832,6362371,3445233,1261494,1018524,2,2,2,2
2025-09-03 13:06:33.832,6362387,1348089,1277919,1018597,2,2,2,2
2025-09-03 13:06:33.833,6362499,1348197,1277965,1018637,2,2,2,2
2025-09-03 13:06:33.833,6362623,1356443,1278153,1018752,2,2,2,2
2025-09-03 13:06:33.833,2168351,1348345,3375334,1035200,2,2,2,2
2025-09-03 13:06:33.833,6362737,1364490,1278199,1018859,2,2,2,2
2025-09-03 13:06:33.834,6362818,3445272,1294343,1018872,2,2,2,2
2025-09-03 13:06:33.834,4265623,1364552,1277978,1035014,2,2,2,2
2025-09-03 13:06:33.834,6362831,1348219,1294448,1018649,2,2,2,2
2025-09-03 13:06:33.834,6362878,1348231,1294464,1018724,2,2,2,2
2025-09-03 13:06:33.834,2168443,1348343,1278200,1018839,2,2,2,2
2025-09-03 13:06:33.834,4265626,1364751,1278230,1035250,2,2,2,2
2025-09-03 13:06:33.835,6362851,1348374,1294688,1018871,2,2,2,2
2025-09-03 13:06:33.835,6362861,1348381,1294694,1018879,2,2,2,2
2025-09-03 13:06:33.835,2168577,1348457,1278323,1018885,2,2,2,2
2025-09-03 13:06:33.835,6362888,1356653,1278267,1018889,2,2,2,2
2025-09-03 13:06:33.836,6362910,1348484,1278415,1018907,2,2,2,2
2025-09-03 13:06:33.836,2168699,1348575,3375593,1035377,2,2,2,2
2025-09-03 13:06:33.836,6363096,1348602,1294596,1019012,2,2,2,2
2025-09-03 13:06:33.836,6363120,1348366,1278232,1019090,2,2,2,2
2025-09-03 13:06:33.837,6362885,1348453,1278318,1019109,2,2,2,2
2025-09-03 13:06:33.837,6362978,1348478,1278406,1019130,2,2,2,2
2025-09-03 13:06:33.837,2168702,1348565,1278366,1035314,2,2,2,2
2025-09-03 13:06:33.837,6363079,3445661,1294790,1018906,2,2,2,2
2025-09-03 13:06:33.838,6363088,3445735,1294834,1018977,2,2,2,2
2025-09-03 13:06:33.838,4265885,1364942,1278458,1018983,2,2,2,2
2025-09-03 13:06:33.838,6363122,1348612,1278478,1018936,2,2,2,2
2025-09-03 13:06:33.838,6363141,1348626,1294910,1019012,2,2,2,2
2025-09-03 13:06:33.839,2177042,1348633,3375721,1035401,2,2,2,2
2025-09-03 13:06:33.839,2168942,1348652,1278588,1019097,2,2,2,2
2025-09-03 13:06:33.839,6363196,1348728,1278662,1019105,2,2,2,2
2025-09-03 13:06:33.839,6363360,1348760,1295081,1019136,2,2,2,2
2025-09-03 13:06:33.839,6363190,1348615,1294875,1019247,2,2,2,2
2025-09-03 13:06:33.840,2177145,1348635,1278576,1019331,2,2,2,2
2025-09-03 13:06:33.840,6363276,1348714,1278657,1019282,2,2,2,2
2025-09-03 13:06:33.840,6363287,1348720,1278668,1019284,2,2,2,2
2025-09-03 13:06:33.841,2169062,1348660,1278614,1035704,2,2,2,2
2025-09-03 13:06:33.841,6363376,1348727,1295001,1019292,2,2,2,2
2025-09-03 13:06:33.841,6363376,1348725,1278613,1019350,2,2,2,2
2025-09-03 13:06:33.841,6363389,1348736,1278621,1019358,2,2,2,2
2025-09-03 13:06:33.842,6363397,1348741,1278691,1019362,2,2,2,2
2025-09-03 13:06:33.842,2169100,1348810,1278696,1035751,2,2,2,2
2025-09-03 13:06:33.842,6363419,3445912,1295093,1019372,2,2,2,2
2025-09-03 13:06:33.842,6363431,3445988,1295105,1019380,2,2,2,2
2025-09-03 13:06:33.843,6363521,1365241,1278744,1019143,2,2,2,2
2025-09-03 13:06:33.843,6363541,1348872,1278823,1019158,2,2,2,2
2025-09-03 13:06:33.844,2177291,1348916,1278873,1019329,2,2,2,2
2025-09-03 13:06:33.844,6363424,3446152,1295342,1019284,2,2,2,2
2025-09-03 13:06:33.844,6363518,1349093,1295114,1019373,2,2,2,2
2025-09-03 13:06:33.844,6363586,1348865,1278824,1019399,2,2,2,2
2025-09-03 13:06:33.845,6363627,1357057,1278761,1019397,2,2,2,2
2025-09-03 13:06:33.845,2177507,1349108,3375899,1035764,2,2,2,2
2025-09-03 13:06:33.845,6363626,1349115,1278751,1019381,2,2,2,2
2025-09-03 13:06:33.845,6363634,1348865,1278758,1019381,2,2,2,2
2025-09-03 13:06:33.846,2169352,1348883,1278841,1035774,2,2,2,2
2025-09-03 13:06:33.846,6363693,1348978,1295258,1019421,2,2,2,2
2025-09-03 13:06:33.846,2169499,1349017,1278977,1019584,2,2,2,2
2025-09-03 13:06:33.846,2169346,1349118,1279080,1019622,2,2,2,2
2025-09-03 13:06:33.847,6363687,1349148,1279181,1019397,2,2,2,2
2025-09-03 13:06:33.848,6363785,1349242,1279211,1019422,2,2,2,2
2025-09-03 13:06:33.848,6363873,1349262,1295366,1019509,2,2,2,2
2025-09-03 13:06:33.848,6363892,1349344,1295422,1019525,2,2,2,2
2025-09-03 13:06:33.849,6363917,1365748,1279094,1019543,2,2,2,2
2025-09-03 13:06:33.849,6363923,1349120,1279105,1019619,2,2,2,2
2025-09-03 13:06:33.849,6363920,1349373,1295483,1019616,2,2,2,2
2025-09-03 13:06:33.850,6364007,1357327,1279184,1019634,2,2,2,2
2025-09-03 13:06:33.850,6364106,1349237,1295599,1019665,2,2,2,2
2025-09-03 13:06:33.850,6364132,1365646,1279241,1019753,2,2,2,2
2025-09-03 13:06:33.850,6363908,1349358,1279338,1019711,2,2,2,2
2025-09-03 13:06:33.850,6363970,1349387,1279368,1019863,2,2,2,2
2025-09-03 13:06:33.851,6364028,1357668,1279453,1019886,2,2,2,2
2025-09-03 13:06:33.851,6364142,1349521,1279235,1019659,2,2,2,2
2025-09-03 13:06:33.851,6364171,1349608,1279257,1019745,2,2,2,2
2025-09-03 13:06:33.851,4267030,1366002,1279331,1036134,2,2,2,2
2025-09-03 13:06:33.851,2169880,1349614,1279334,1036099,2,2,2,2
2025-09-03 13:06:33.851,2178150,1349623,1279350,1019696,2,2,2,2
2025-09-03 13:06:33.852,2178179,1349397,1279381,1019848,2,2,2,2
2025-09-03 13:06:33.852,6364383,3446637,1295850,1019807,2,2,2,2
2025-09-03 13:06:33.852,6364400,1349501,1279479,1019881,2,2,2,2
2025-09-03 13:06:33.852,6364167,1349520,1295882,1019897,2,2,2,2
2025-09-03 13:06:33.853,6364208,1349619,1295983,1019927,2,2,2,2
2025-09-03 13:06:33.853,6364431,1366150,1279491,1028323,2,2,2,2
2025-09-03 13:06:33.853,2170223,1349857,1279518,1036542,2,2,2,2
2025-09-03 13:06:33.853,6364554,1358072,1279545,1019922,2,2,2,2
2025-09-03 13:06:33.854,6364651,1349653,1296023,1020013,2,2,2,2
2025-09-03 13:06:33.854,6364429,3446906,1296127,1020046,2,2,2,2
2025-09-03 13:06:33.854,6364533,1349856,1279848,1020146,2,2,2,2
2025-09-03 13:06:33.854,6364558,1349876,1279874,1020167,2,2,2,2
2025-09-03 13:06:33.855,6364659,1349905,1279971,1020262,2,2,2,2
2025-09-03 13:06:33.855,6364702,1366351,1279753,1028490,2,2,2,2
2025-09-03 13:06:33.855,6364707,3447153,1296142,1020293,2,2,2,2
2025-09-03 13:06:33.856,4267620,1366390,1279759,1036673,2,2,2,2
2025-09-03 13:06:33.856,6364789,1350020,1279770,1020366,2,2,2,2
2025-09-03 13:06:33.856,2178688,1350087,3376994,1036756,2,2,2,2
2025-09-03 13:06:33.856,2178703,1350101,3377006,1036767,2,2,2,2
2025-09-03 13:06:33.857,2170515,1350037,1279856,1020383,2,2,2,2
2025-09-03 13:06:33.857,6364896,1350117,1279806,1020397,2,2,2,2
2025-09-03 13:06:33.857,6364909,1350127,1296260,1020404,2,2,2,2
2025-09-03 13:06:33.857,6364918,1350133,1296269,1020404,2,2,2,2
2025-09-03 13:06:33.858,6364675,1366525,1279901,1028598,2,2,2,2
2025-09-03 13:06:33.858,2170381,1349888,1279973,1036790,2,2,2,2
2025-09-03 13:06:33.858,6364694,1349894,1279979,1020409,2,2,2,2
2025-09-03 13:06:33.859,2170394,1349897,1279983,1036793,2,2,2,2
2025-09-03 13:06:33.859,6364713,1349906,1296375,1020162,2,2,2,2
2025-09-03 13:06:33.859,6364805,1349990,1280011,1020181,2,2,2,2
2025-09-03 13:06:33.859,6364898,1350017,1280096,1020205,2,2,2,2
2025-09-03 13:06:33.860,6364876,1350026,1280103,1020211,2,2,2,2
2025-09-03 13:06:33.860,6364930,1358232,1280056,1020287,2,2,2,2
2025-09-03 13:06:33.860,6364948,1366500,1280134,1028490,2,2,2,2
2025-09-03 13:06:33.860,6364950,3447268,1296517,1020294,2,2,2,2
2025-09-03 13:06:33.861,6364956,1350119,1280201,1020295,2,2,2,2
2025-09-03 13:06:33.861,6365002,1350131,1280150,1020368,2,2,2,2
2025-09-03 13:06:33.861,2178945,1350150,3377391,1036738,2,2,2,2
2025-09-03 13:06:33.861,2178958,1350157,3377403,1036746,2,2,2,2
2025-09-03 13:06:33.862,2179052,1350179,1280020,1020413,2,2,2,2
2025-09-03 13:06:33.862,6364951,1350287,1296577,1020514,2,2,2,2
2025-09-03 13:06:33.862,6365041,1358568,1280217,1020534,2,2,2,2
2025-09-03 13:06:33.862,2170749,1350385,1280225,1036923,2,2,2,2
2025-09-03 13:06:33.863,6365143,1350146,1296626,1020555,2,2,2,2
2025-09-03 13:06:33.863,2179056,1350166,1280268,1020641,2,2,2,2
2025-09-03 13:06:33.863,4284417,1366567,1280278,1037039,2,2,2,2
2025-09-03 13:06:33.863,6381597,1350267,1280301,1020418,2,2,2,2
2025-09-03 13:06:33.864,2187375,1350344,1280382,1036816,2,2,2,2
2025-09-03 13:06:33.864,6381771,1350300,1296791,1020517,2,2,2,2
2025-09-03 13:06:33.864,6365421,1350396,1280508,1020478,2,2,2,2
2025-09-03 13:06:33.864,6381576,1366835,1280270,1028753,2,2,2,2
2025-09-03 13:06:33.865,6365251,1350508,1280354,1020647,2,2,2,2
2025-09-03 13:06:33.865,6381687,1358716,1280308,1020661,2,2,2,2
2025-09-03 13:06:33.865,6381782,1350555,1296823,1020685,2,2,2,2
2025-09-03 13:06:33.866,6381793,1366973,1280413,1028880,2,2,2,2
2025-09-03 13:06:33.866,6365418,1350628,1280483,1020693,2,2,2,2
2025-09-03 13:06:33.866,2187520,1350649,3377654,1037124,2,2,2,2
2025-09-03 13:06:33.867,2179444,1350431,3377772,1037259,2,2,2,2
2025-09-03 13:06:33.867,6382023,3447661,1296951,1020822,2,2,2,2
2025-09-03 13:06:33.867,6381980,1350532,1280714,1020903,2,2,2,2
2025-09-03 13:06:33.867,6365642,1350544,1280666,1020913,2,2,2,2
2025-09-03 13:06:33.868,6381826,1358820,1280752,1020676,2,2,2,2
2025-09-03 13:06:33.868,2179431,1350661,3377676,1037088,2,2,2,2
2025-09-03 13:06:33.868,4284814,1367115,1280626,1028993,2,2,2,2
2025-09-03 13:06:33.868,6365645,1350791,1280661,1020894,2,2,2,2
2025-09-03 13:06:33.869,2187779,1350873,1280743,1037293,2,2,2,2
2025-09-03 13:06:33.869,6365715,1350884,1297141,1020915,2,2,2,2
2025-09-03 13:06:33.869,2171415,1350883,1280756,1020912,2,2,2,2
2025-09-03 13:06:33.869,2171507,1350909,1280777,1020931,2,2,2,2
2025-09-03 13:06:33.870,6382286,1350676,1280799,1020952,2,2,2,2
2025-09-03 13:06:33.870,4285152,1367080,1280880,1037416,2,2,2,2
2025-09-03 13:06:33.870,6382317,1350770,1297272,1021038,2,2,2,2
2025-09-03 13:06:33.870,6382086,1350786,1297291,1021052,2,2,2,2
2025-09-03 13:06:33.871,6382110,1367198,1280997,1029263,2,2,2,2
2025-09-03 13:06:33.871,6365818,1350900,1281022,1021159,2,2,2,2
2025-09-03 13:06:33.871,2187932,1350932,1280796,1037314,2,2,2,2
2025-09-03 13:06:33.871,6382326,1359209,1280816,1020949,2,2,2,2
2025-09-03 13:06:33.872,2179850,1350971,3378043,1037351,2,2,2,2
2025-09-03 13:06:33.872,6382432,1367438,1280913,1021050,2,2,2,2
2025-09-03 13:06:33.872,6366020,1351056,1280912,1020981,2,2,2,2
2025-09-03 13:06:33.872,6366011,1351045,1280903,1020966,2,2,2,2
2025-09-03 13:06:33.873,6382366,1359229,1280969,1020959,2,2,2,2
2025-09-03 13:06:33.873,2179958,1351116,3378072,1037389,2,2,2,2
2025-09-03 13:06:33.873,6382482,1367495,1281016,1029254,2,2,2,2
2025-09-03 13:06:33.873,6382562,1351157,1297417,1021077,2,2,2,2
2025-09-03 13:06:33.874,4285415,1367545,1281042,1037464,2,2,2,2
2025-09-03 13:06:33.874,6366207,1350927,1297513,1021166,2,2,2,2
2025-09-03 13:06:33.874,2179937,1350956,1281162,1021194,2,2,2,2
2025-09-03 13:06:33.874,2179958,1350972,1281180,1037591,2,2,2,2
2025-09-03 13:06:33.875,6382538,3448202,1297645,1021282,2,2,2,2
2025-09-03 13:06:33.875,4285336,1367439,1281267,1037672,2,2,2,2
2025-09-03 13:06:33.875,6382552,1351062,1297650,1021285,2,2,2,2
2025-09-03 13:06:33.875,6382571,1351140,1297411,1021299,2,2,2,2
2025-09-03 13:06:33.876,2171925,1351166,1281127,1021394,2,2,2,2
2025-09-03 13:06:33.876,2188393,1351185,1281148,1037792,2,2,2,2
2025-09-03 13:06:33.876,2188428,1351218,1281181,1037820,2,2,2,2
2025-09-03 13:06:33.877,6366436,1351300,1297652,1021196,2,2,2,2
2025-09-03 13:06:33.877,6382836,1351309,1297662,1021203,2,2,2,2
2025-09-03 13:06:33.877,6366209,1351320,1281288,1021209,2,2,2,2
2025-09-03 13:06:33.877,6366215,1351325,1281290,1021211,2,2,2,2
2025-09-03 13:06:33.878,6382600,1351326,1281291,1021212,2,2,2,2
2025-09-03 13:06:33.878,2188384,1351409,3378461,1037644,2,2,2,2
2025-09-03 13:06:33.878,6382633,3448574,1297709,1021302,2,2,2,2
2025-09-03 13:06:33.878,6382635,3448571,1297710,1021297,2,2,2,2
2025-09-03 13:06:33.879,4285547,1367798,1281388,1037669,2,2,2,2
2025-09-03 13:06:33.879,6366320,1351412,1281394,1021218,2,2,2,2
2025-09-03 13:06:33.879,2180227,1351169,3378563,1037615,2,2,2,2
2025-09-03 13:06:33.879,2180246,1351186,3378581,1037629,2,2,2,2
2025-09-03 13:06:33.880,6382834,3448431,1297907,1021335,2,2,2,2
2025-09-03 13:06:33.880,6382865,1351309,1281297,1021431,2,2,2,2
2025-09-03 13:06:33.880,6382950,1359584,1281314,1021449,2,2,2,2
2025-09-03 13:06:33.880,6366519,1351407,1297776,1021458,2,2,2,2
2025-09-03 13:06:33.881,2172401,1351457,1281510,1021633,2,2,2,2
2025-09-03 13:06:33.881,4285705,1367859,1281532,1037969,2,2,2,2
2025-09-03 13:06:33.881,4285799,1368012,1281558,1038052,2,2,2,2
2025-09-03 13:06:33.882,6366596,1351658,1298037,1021693,2,2,2,2
2025-09-03 13:06:33.882,6383065,1351671,1298056,1021451,2,2,2,2
2025-09-03 13:06:33.882,6366706,1351437,1281693,1021467,2,2,2,2
2025-09-03 13:06:33.882,6366732,1351524,1281778,1021497,2,2,2,2
2025-09-03 13:06:33.883,6383203,1351548,1281545,1021581,2,2,2,2
2025-09-03 13:06:33.883,6383222,1359752,1281558,1021592,2,2,2,2
2025-09-03 13:06:33.883,6383241,1367963,1281640,1029865,2,2,2,2
2025-09-03 13:06:33.884,2172664,1368066,1281676,1021703,2,2,2,2
2025-09-03 13:06:33.884,6366720,1368073,1281687,1021706,2,2,2,2
2025-09-03 13:06:33.884,2180615,1368075,3378840,1038086,2,2,2,2
2025-09-03 13:06:33.884,2180630,1368089,3378913,1038095,2,2,2,2
2025-09-03 13:06:33.885,6383152,3465328,1298166,1021799,2,2,2,2
2025-09-03 13:06:33.885,6383309,1368200,1298189,1021821,2,2,2,2
2025-09-03 13:06:33.885,6383334,1360096,1281833,1021846,2,2,2,2
2025-09-03 13:06:33.885,6366971,1368305,1298307,1021924,2,2,2,2
2025-09-03 13:06:33.886,2180985,1368100,1281792,1038097,2,2,2,2
2025-09-03 13:06:33.886,4286366,1368196,1281893,1038191,2,2,2,2
2025-09-03 13:06:33.886,4286452,1368246,1281917,1038208,2,2,2,2
2025-09-03 13:06:33.887,6366977,1368288,1298308,1021891,2,2,2,2
2025-09-03 13:06:33.887,6383372,1368303,1298317,1021834,2,2,2,2
2025-09-03 13:06:33.887,2172769,1368318,1281949,1021910,2,2,2,2
2025-09-03 13:06:33.887,2172780,1368328,1282021,1021916,2,2,2,2
2025-09-03 13:06:33.888,6367092,1368328,1282022,1021919,2,2,2,2
2025-09-03 13:06:33.888,6383506,1360224,1282052,1021945,2,2,2,2
2025-09-03 13:06:33.888,6383508,1368347,1282049,1030135,2,2,2,2
2025-09-03 13:06:33.888,6383580,1368420,1298438,1021948,2,2,2,2
2025-09-03 13:06:33.889,6383606,1368447,1282078,1030164,2,2,2,2
2025-09-03 13:06:33.889,6367230,1368455,1290336,1021976,2,2,2,2
2025-09-03 13:06:33.889,2189316,1368520,3379297,1038394,2,2,2,2
2025-09-03 13:06:33.889,2189342,1368543,1282165,1038412,2,2,2,2
2025-09-03 13:06:33.890,2181239,1368562,3379335,1038398,2,2,2,2
2025-09-03 13:06:33.890,6383818,3465475,1298614,1022093,2,2,2,2
2025-09-03 13:06:33.890,6383852,1368416,1282298,1022187,2,2,2,2
2025-09-03 13:06:33.890,6367483,1368432,1290255,1022194,2,2,2,2
2025-09-03 13:06:33.891,6367252,1368455,1298535,1021957,2,2,2,2
2025-09-03 13:06:33.891,4286606,1368574,1282206,1030272,2,2,2,2
2025-09-03 13:06:33.891,4286700,1368632,1282295,1030290,2,2,2,2
2025-09-03 13:06:33.892,4286721,1368615,1282317,1038493,2,2,2,2
2025-09-03 13:06:33.892,6367496,1368678,1298703,1022106,2,2,2,2
2025-09-03 13:06:33.892,2173189,1368606,1282313,1022160,2,2,2,2
2025-09-03 13:06:33.892,2181378,1368601,1282318,1022159,2,2,2,2
2025-09-03 13:06:33.893,6367504,1368678,1290524,1022169,2,2,2,2
2025-09-03 13:06:33.893,6383896,1368682,1282339,1022106,2,2,2,2
2025-09-03 13:06:33.893,6384069,1368717,1298818,1022201,2,2,2,2
2025-09-03 13:06:33.894,6384099,1368802,1282458,1030414,2,2,2,2
2025-09-03 13:06:33.894,6367732,1368816,1282539,1022232,2,2,2,2
2025-09-03 13:06:33.894,2189821,1368823,1282547,1038652,2,2,2,2
2025-09-03 13:06:33.894,2189821,1368825,1282549,1038618,2,2,2,2
2025-09-03 13:06:33.895,2181401,1368594,3379471,1038705,2,2,2,2
2025-09-03 13:06:33.895,6383934,3465840,1298764,1022347,2,2,2,2
2025-09-03 13:06:33.895,6384022,1368704,1282367,1022364,2,2,2,2
2025-09-03 13:06:33.895,6367729,1368730,1290649,1022449,2,2,2,2
2025-09-03 13:06:33.896,6367759,1368824,1298934,1022221,2,2,2,2
2025-09-03 13:06:33.896,2189928,1368844,3379727,1038657,2,2,2,2
2025-09-03 13:06:33.896,6384240,1368884,1282583,1030498,2,2,2,2
2025-09-03 13:06:33.896,6384186,3466010,1298974,1022308,2,2,2,2
2025-09-03 13:06:33.897,4287118,1368865,1282667,1038700,2,2,2,2
2025-09-03 13:06:33.897,6367933,1368933,1299062,1022321,2,2,2,2
2025-09-03 13:06:33.897,2181869,1368886,1282691,1022401,2,2,2,2
2025-09-03 13:06:33.897,6384376,1368955,1282696,1022345,2,2,2,2
2025-09-03 13:06:33.898,6367744,1368961,1282704,1022414,2,2,2,2
2025-09-03 13:06:33.898,6384140,1368968,1282777,1022355,2,2,2,2
2025-09-03 13:06:33.898,6367799,1369069,1299197,1022453,2,2,2,2
2025-09-03 13:06:33.899,2173687,1368942,1282682,1022508,2,2,2,2
2025-09-03 13:06:33.899,6384484,1360796,1282787,1022613,2,2,2,2
2025-09-03 13:06:33.899,6384512,1360888,1282809,1022695,2,2,2,2
2025-09-03 13:06:33.900,2190223,1369091,3379974,1039092,2,2,2,2
2025-09-03 13:06:33.900,6384619,1369116,1299267,1022473,2,2,2,2
2025-09-03 13:06:33.900,6368014,1369211,1291137,1022498,2,2,2,2
2025-09-03 13:06:33.900,6368113,1369239,1291233,1022523,2,2,2,2
2025-09-03 13:06:33.901,6384608,1369089,1282829,1022689,2,2,2,2
2025-09-03 13:06:33.901,2190345,1369126,1282930,1039112,2,2,2,2
2025-09-03 13:06:33.901,6384683,3466369,1299405,1022820,2,2,2,2
2025-09-03 13:06:33.901,6384832,3466387,1299423,1022832,2,2,2,2
2025-09-03 13:06:33.902,4287644,1369291,1283063,1039235,2,2,2,2
2025-09-03 13:06:33.902,6368256,1369351,1291280,1022942,2,2,2,2
2025-09-03 13:06:33.902,2182258,1369398,3380348,1039110,2,2,2,2
2025-09-03 13:06:33.902,2182303,1369570,3380458,1039148,2,2,2,2
2025-09-03 13:06:33.903,6384895,3466500,1299466,1022856,2,2,2,2
2025-09-03 13:06:33.903,4287773,1369407,1283174,1031140,2,2,2,2
2025-09-03 13:06:33.903,6368572,1369464,1299586,1022976,2,2,2,2
2025-09-03 13:06:33.903,6368726,1369486,1299612,1022995,2,2,2,2
2025-09-03 13:06:33.904,2182625,1369560,1283311,1023003,2,2,2,2
2025-09-03 13:06:33.904,4287980,1369570,1283318,1039457,2,2,2,2
2025-09-03 13:06:33.904,6385130,1369572,1283320,1023007,2,2,2,2
2025-09-03 13:06:33.905,6368760,1369585,1299714,1023081,2,2,2,2
2025-09-03 13:06:33.905,6368608,1369616,1283432,1023174,2,2,2,2
2025-09-03 13:06:33.905,6368634,1369703,1283453,1023197,2,2,2,2
2025-09-03 13:06:33.906,6385040,1369720,1283534,1023211,2,2,2,2
2025-09-03 13:06:33.906,2190825,1369810,1283556,1039615,2,2,2,2
2025-09-03 13:06:33.906,6385142,1369756,1283568,1022984,2,2,2,2
2025-09-03 13:06:33.906,6385118,3466885,1299899,1023215,2,2,2,2
2025-09-03 13:06:33.907,6385039,1369679,1283469,1031392,2,2,2,2
2025-09-03 13:06:33.907,6385038,1369704,1283528,1023131,2,2,2,2
2025-09-03 13:06:33.907,2182551,1369648,3380625,1039553,2,2,2,2
2025-09-03 13:06:33.908,2190835,1369805,3380718,1039610,2,2,2,2
2025-09-03 13:06:33.908,6385177,3466993,1299766,1023003,2,2,2,2
2025-09-03 13:06:33.908,6385275,1369614,1283444,1031285,2,2,2,2
2025-09-03 13:06:33.908,6368955,1369699,1299853,1023112,2,2,2,2
2025-09-03 13:06:33.908,6368966,1369699,1299856,1023114,2,2,2,2
2025-09-03 13:06:33.909,4288243,1369667,1283468,1039480,2,2,2,2
2025-09-03 13:06:33.909,4288254,1369679,1283481,1039490,2,2,2,2
2025-09-03 13:06:33.910,6368770,1369712,1291677,1023038,2,2,2,2
2025-09-03 13:06:33.910,6368777,1369717,1299942,1023097,2,2,2,2
2025-09-03 13:06:33.910,6385185,3466889,1299965,1023112,2,2,2,2
2025-09-03 13:06:33.910,2174581,1369755,1283601,1023190,2,2,2,2
2025-09-03 13:06:33.911,6385354,1369834,1283619,1023210,2,2,2,2
2025-09-03 13:06:33.911,2191004,1369849,1283696,1039606,2,2,2,2
2025-09-03 13:06:33.912,2174825,1369910,1283818,1023275,2,2,2,2
2025-09-03 13:06:33.912,6369146,1369985,1292027,1023284,2,2,2,2
2025-09-03 13:06:33.912,2191239,1370057,3380741,1039741,2,2,2,2
2025-09-03 13:06:33.912,2191255,1370068,1283599,1039749,2,2,2,2
2025-09-03 13:06:33.913,6385649,1370090,1300040,1023384,2,2,2,2
2025-09-03 13:06:33.913,6385436,3467027,1300146,1023486,2,2,2,2
2025-09-03 13:06:33.913,6385554,1369986,1283842,1023343,2,2,2,2
2025-09-03 13:06:33.913,6385654,1370011,1283871,1023368,2,2,2,2
2025-09-03 13:06:33.914,2191373,1370096,1283951,1039802,2,2,2,2
2025-09-03 13:06:33.914,2191467,1370124,3381129,1039859,2,2,2,2
2025-09-03 13:06:33.914,4288648,1370182,1284066,1031689,2,2,2,2
2025-09-03 13:06:33.914,4288654,1370188,1284074,1031687,2,2,2,2
2025-09-03 13:06:33.915,6369464,1370223,1292273,1023502,2,2,2,2
2025-09-03 13:06:33.915,6369506,1370228,1300471,1023504,2,2,2,2
2025-09-03 13:06:33.915,6385912,3467398,1300232,1023584,2,2,2,2
2025-09-03 13:06:33.915,6385680,3467423,1300284,1023604,2,2,2,2
2025-09-03 13:06:33.916,6385695,1370318,1283946,1031809,2,2,2,2
2025-09-03 13:06:33.916,4288542,1370347,1283947,1039993,2,2,2,2
2025-09-03 13:06:33.917,2191379,1370317,1283857,1023508,2,2,2,2
2025-09-03 13:06:33.917,6369300,1370253,1283855,1023507,2,2,2,2
2025-09-03 13:06:33.917,6369341,1370258,1300245,1023510,2,2,2,2
2025-09-03 13:06:33.917,6369354,1370268,1300254,1023517,2,2,2,2
2025-09-03 13:06:33.918,6385718,1370338,1300335,1023592,2,2,2,2
2025-09-03 13:06:33.918,6369466,1370113,1292180,1023686,2,2,2,2
2025-09-03 13:06:33.918,6385911,1370142,1284080,1023646,2,2,2,2
2025-09-03 13:06:33.919,6385940,1362044,1284105,1023731,2,2,2,2
2025-09-03 13:06:33.919,2191729,1370321,3381348,1039883,2,2,2,2
2025-09-03 13:06:33.919,2175366,1370336,1284214,1023516,2,2,2,2
2025-09-03 13:06:33.919,2175373,1370338,1284219,1023519,2,2,2,2
2025-09-03 13:06:33.920,6369763,1370350,1292425,1023533,2,2,2,2
2025-09-03 13:06:33.920,6386171,1362176,1284316,1023614,2,2,2,2
2025-09-03 13:06:33.920,6385948,1370399,1300734,1023638,2,2,2,2
2025-09-03 13:06:33.920,6385977,1370495,1300539,1023729,2,2,2,2
2025-09-03 13:06:33.921,6386131,3467672,1300532,1023750,2,2,2,2
2025-09-03 13:06:33.921,4289015,1370618,1284245,1040224,2,2,2,2
2025-09-03 13:06:33.921,2191900,1370398,1284342,1040254,2,2,2,2
2025-09-03 13:06:33.921,6386316,1362316,1284384,1023974,2,2,2,2
2025-09-03 13:06:33.922,2192114,1370607,3381633,1040133,2,2,2,2
2025-09-03 13:06:33.922,6386189,3467785,1300923,1023770,2,2,2,2
2025-09-03 13:06:33.922,6369859,1370654,1292784,1023792,2,2,2,2
2025-09-03 13:06:33.922,2192001,1370680,1284363,1040267,2,2,2,2
2025-09-03 13:06:33.923,6370016,1370771,1300842,1023973,2,2,2,2
2025-09-03 13:06:33.923,6386453,1370627,1284579,1040399,2,2,2,2
2025-09-03 13:06:33.923,6370154,1370640,1292785,1040410,2,2,2,2
2025-09-03 13:06:33.924,6386562,1370652,1284613,1040491,2,2,2,2
2025-09-03 13:06:33.924,6370271,1370741,1301088,1040513,2,2,2,2
2025-09-03 13:06:33.924,2192364,1370817,1284714,1040584,2,2,2,2
2025-09-03 13:06:33.924,6386674,1370760,1284720,1032331,2,2,2,2
2025-09-03 13:06:33.925,6370299,1370762,1284726,1040590,2,2,2,2
2025-09-03 13:06:33.925,6386681,1370758,1284655,1040520,2,2,2,2
2025-09-03 13:06:33.925,2192359,1370668,3381858,1040423,2,2,2,2
2025-09-03 13:06:33.926,6386656,3467878,1301049,1040415,2,2,2,2
2025-09-03 13:06:33.926,6370280,1370729,1284704,1040414,2,2,2,2
2025-09-03 13:06:33.926,2192369,1370670,1284714,1040453,2,2,2,2
2025-09-03 13:06:33.926,6386438,1362564,1284671,1040503,2,2,2,2
2025-09-03 13:06:33.927,2192232,1370850,3381918,1040561,2,2,2,2
2025-09-03 13:06:33.927,6386629,3468018,1301241,1040608,2,2,2,2
2025-09-03 13:06:33.927,6370236,1370883,1292814,1040624,2,2,2,2
2025-09-03 13:06:33.927,4289533,1370908,1284711,1040393,2,2,2,2
2025-09-03 13:06:33.928,6370318,1370989,1301112,1040409,2,2,2,2
2025-09-03 13:06:33.928,4289652,1371057,1284760,1040501,2,2,2,2
2025-09-03 13:06:33.928,6386881,3468184,1301207,1040504,2,2,2,2
2025-09-03 13:06:33.929,4289673,1371066,1284761,1040505,2,2,2,2
2025-09-03 13:06:33.929,6370483,1371109,1301220,1040515,2,2,2,2
2025-09-03 13:06:33.930,2176102,1370991,1284978,1040653,2,2,2,2
2025-09-03 13:06:33.930,6386831,1371029,1285083,1040754,2,2,2,2
2025-09-03 13:06:33.930,6370533,1371113,1301488,1040771,2,2,2,2
2025-09-03 13:06:33.930,2192632,1371131,3382020,1040782,2,2,2,2
2025-09-03 13:06:33.931,6386962,1371152,1301305,1040868,2,2,2,2
2025-09-03 13:06:33.931,2176359,1371167,1284971,1040881,2,2,2,2
2025-09-03 13:06:33.931,6387079,1363065,1285067,1040654,2,2,2,2
2025-09-03 13:06:33.931,6387184,1371292,1285103,1040752,2,2,2,2
2025-09-03 13:06:33.932,2192661,1371390,3382287,1040776,2,2,2,2
2025-09-03 13:06:33.932,6386991,1371157,1301577,1040799,2,2,2,2
2025-09-03 13:06:33.932,6370695,1371243,1293442,1040886,2,2,2,2
2025-09-03 13:06:33.932,4289938,1371248,1285254,1040889,2,2,2,2
2025-09-03 13:06:33.933,6370739,1371249,1293444,1040887,2,2,2,2
2025-09-03 13:06:33.933,6387093,1363058,1285313,1040883,2,2,2,2
2025-09-03 13:06:33.933,6387178,3468418,1301684,1040895,2,2,2,2
2025-09-03 13:06:33.933,6387194,3468429,1301698,1040902,2,2,2,2
2025-09-03 13:06:33.934,4290064,1371333,1285367,1040920,2,2,2,2
2025-09-03 13:06:33.934,6370891,1371394,1293326,1040942,2,2,2,2
2025-09-03 13:06:33.935,2176742,1371441,1285253,1041114,2,2,2,2
2025-09-03 13:06:33.935,6387446,1371519,1285333,1041126,2,2,2,2
2025-09-03 13:06:33.935,6370826,1371540,1301732,1041142,2,2,2,2
2025-09-03 13:06:33.935,2193000,1371627,1285372,1040907,2,2,2,2
2025-09-03 13:06:33.936,6387258,1371637,1301772,1040919,2,2,2,2
2025-09-03 13:06:33.936,6387331,1371642,1285393,1032735,2,2,2,2
2025-09-03 13:06:33.936,6387351,1371401,1285412,1041006,2,2,2,2
2025-09-03 13:06:33.936,6387431,1371414,1285426,1041018,2,2,2,2
2025-09-03 13:06:33.937,2193133,1371419,1285494,1041023,2,2,2,2
2025-09-03 13:06:33.937,6387462,1371505,1301897,1041042,2,2,2,2
2025-09-03 13:06:33.937,4290410,1371572,1285609,1032941,2,2,2,2
2025-09-03 13:06:33.937,4290446,1371641,1285387,1032971,2,2,2,2
2025-09-03 13:06:33.938,6371276,1371663,1293667,1041183,2,2,2,2
2025-09-03 13:06:33.938,6387710,1363482,1285427,1041254,2,2,2,2
2025-09-03 13:06:33.938,6371098,1371764,1301904,1041278,2,2,2,2
2025-09-03 13:06:33.938,6387572,1371826,1285611,1033113,2,2,2,2
2025-09-03 13:06:33.939,6387586,1371840,1285622,1033187,2,2,2,2
2025-09-03 13:06:33.939,6371211,1371880,1293825,1041382,2,2,2,2
2025-09-03 13:06:33.940,2193392,1371898,1285729,1041399,2,2,2,2
2025-09-03 13:06:33.940,6371319,1371902,1285731,1041399,2,2,2,2
2025-09-03 13:06:33.940,6371334,1371659,1302122,1041152,2,2,2,2
2025-09-03 13:06:33.940,2193421,1371662,1285743,1041154,2,2,2,2
2025-09-03 13:06:33.941,6387818,1363556,1285832,1041176,2,2,2,2
2025-09-03 13:06:33.941,6387858,1371784,1285868,1041264,2,2,2,2
2025-09-03 13:06:33.941,6387940,1371802,1285887,1041278,2,2,2,2
2025-09-03 13:06:33.942,2193647,1371869,1285643,1041281,2,2,2,2
2025-09-03 13:06:33.942,6371568,1371800,1302027,1041279,2,2,2,2
2025-09-03 13:06:33.942,6387960,1371840,1285651,1033092,2,2,2,2
2025-09-03 13:06:33.942,6387724,1371888,1285730,1033104,2,2,2,2
2025-09-03 13:06:33.943,6371431,1371908,1293939,1041376,2,2,2,2
2025-09-03 13:06:33.943,6371454,1371925,1302151,1041391,2,2,2,2
2025-09-03 13:06:33.943,6387937,1372020,1302215,1041419,2,2,2,2
2025-09-03 13:06:33.943,6387958,1372040,1302268,1041438,2,2,2,2
2025-09-03 13:06:33.944,6387975,1372057,1285901,1033329,2,2,2,2
2025-09-03 13:06:33.944,4290845,1372108,1285918,1041545,2,2,2,2
2025-09-03 13:06:33.944,6388095,1363725,1285951,1041641,2,2,2,2
2025-09-03 13:06:33.944,6388119,1363812,1286104,1041659,2,2,2,2
2025-09-03 13:06:33.945,2193902,1371955,3383274,1041422,2,2,2,2
2025-09-03 13:06:33.945,2177281,1372037,1286140,1041437,2,2,2,2
2025-09-03 13:06:33.945,6371636,1372053,1294096,1041450,2,2,2,2
2025-09-03 13:06:33.945,2193693,1372127,1285915,1041518,2,2,2,2
2025-09-03 13:06:33.946,6371623,1372130,1302369,1041520,2,2,2,2
2025-09-03 13:06:33.946,6388021,1372137,1302351,1041529,2,2,2,2
2025-09-03 13:06:33.946,6388164,1372147,1285948,1041534,2,2,2,2
2025-09-03 13:06:33.946,6388183,1372162,1286092,1041545,2,2,2,2
2025-09-03 13:06:33.947,4291063,1372189,1286118,1041632,2,2,2,2
2025-09-03 13:06:33.947,2193940,1372213,1302529,1041655,2,2,2,2
2025-09-03 13:06:33.947,6388343,1372308,1302626,1033493,2,2,2,2
2025-09-03 13:06:33.947,6388460,1372165,1302674,1033603,2,2,2,2
2025-09-03 13:06:33.948,6371869,1372277,1302783,1041899,2,2,2,2
2025-09-03 13:06:33.948,6371972,1372317,1294435,1041680,2,2,2,2
2025-09-03 13:06:33.948,2194159,1372421,3399822,1041716,2,2,2,2
2025-09-03 13:06:33.948,2194204,1372463,3399925,1041850,2,2,2,2
2025-09-03 13:06:33.949,6388540,3469701,1302796,1041904,2,2,2,2
2025-09-03 13:06:33.949,6388679,1372552,1302797,1041903,2,2,2,2
2025-09-03 13:06:33.949,6388618,1372556,1302799,1041902,2,2,2,2
2025-09-03 13:06:33.949,6388625,1372561,1302804,1041907,2,2,2,2
2025-09-03 13:06:33.950,2194419,1372653,3400050,1041968,2,2,2,2
2025-09-03 13:06:33.950,2194190,1372417,1302917,1041953,2,2,2,2
2025-09-03 13:06:33.950,4291355,1372421,1302925,1042024,2,2,2,2
2025-09-03 13:06:33.950,4291437,1372443,1302941,1042041,2,2,2,2
2025-09-03 13:06:33.951,6372223,1372524,1303022,1042051,2,2,2,2
2025-09-03 13:06:33.951,6388693,1372538,1302784,1042064,2,2,2,2
2025-09-03 13:06:33.951,6388732,3469722,1302819,1042160,2,2,2,2
2025-09-03 13:06:33.951,6372372,1372659,1302911,1041923,2,2,2,2
2025-09-03 13:06:33.952,6388860,1372696,1303014,1042023,2,2,2,2
2025-09-03 13:06:33.952,6388893,1372789,1303043,1042047,2,2,2,2
2025-09-03 13:06:33.953,2178063,1372830,1303157,1042147,2,2,2,2
2025-09-03 13:06:33.953,6372403,1372896,1294967,1042140,2,2,2,2
2025-09-03 13:06:33.953,2194461,1372905,3400321,1042114,2,2,2,2
2025-09-03 13:06:33.953,2194533,1372911,3400329,1042120,2,2,2,2
2025-09-03 13:06:33.954,6388792,3469824,1303224,1042169,2,2,2,2
2025-09-03 13:06:33.954,6388948,3469848,1303275,1042191,2,2,2,2
2025-09-03 13:06:33.954,6388879,1372685,1303264,1042179,2,2,2,2
2025-09-03 13:06:33.954,6372494,1372681,1303266,1042175,2,2,2,2
2025-09-03 13:06:33.955,2194699,1372734,3400221,1042223,2,2,2,2
2025-09-03 13:06:33.955,4291938,1372856,1303156,1042305,2,2,2,2
2025-09-03 13:06:33.955,4291939,1372855,1303156,1042299,2,2,2,2
2025-09-03 13:06:33.956,2194799,1372897,1303167,1042302,2,2,2,2
2025-09-03 13:06:33.956,6372803,1372919,1303188,1042315,2,2,2,2
2025-09-03 13:06:33.956,6389203,3470078,1303234,1042322,2,2,2,2
2025-09-03 13:06:33.956,2178463,1372929,1303275,1042391,2,2,2,2
2025-09-03 13:06:33.957,6389244,1372952,1303298,1042414,2,2,2,2
2025-09-03 13:06:33.957,2194712,1372971,1303320,1042180,2,2,2,2
2025-09-03 13:06:33.957,6389193,1373086,1303427,1042283,2,2,2,2
2025-09-03 13:06:33.958,6389151,1373165,1303442,1034108,2,2,2,2
2025-09-03 13:06:33.958,6372839,1373172,1295260,1042239,2,2,2,2
2025-09-03 13:06:33.958,6389245,1372937,1303539,1042320,2,2,2,2
2025-09-03 13:06:33.958,2194943,1372936,1303537,1042319,2,2,2,2
2025-09-03 13:06:33.959,2194949,1372938,3400689,1042382,2,2,2,2
2025-09-03 13:06:33.959,6389276,3470107,1303298,1042401,2,2,2,2
2025-09-03 13:06:33.959,6389279,1372956,1303303,1042401,2,2,2,2
2025-09-03 13:06:33.959,6372933,1372957,1295117,1042398,2,2,2,2
2025-09-03 13:06:33.960,6389359,1372959,1303315,1042401,2,2,2,2
2025-09-03 13:06:33.960,2195072,1372971,3400478,1042411,2,2,2,2
2025-09-03 13:06:33.960,4292323,1373064,1303422,1034250,2,2,2,2
2025-09-03 13:06:33.960,6389493,1373076,1303502,1042452,2,2,2,2
2025-09-03 13:06:33.961,4292101,1373151,1303452,1042463,2,2,2,2
2025-09-03 13:06:33.961,6372899,1373180,1303545,1042550,2,2,2,2
2025-09-03 13:06:33.961,2195067,1373205,1303566,1042631,2,2,2,2
2025-09-03 13:06:33.961,2195084,1373225,1303583,1042643,2,2,2,2
2025-09-03 13:06:33.962,6389486,1373319,1303744,1042674,2,2,2,2
2025-09-03 13:06:33.962,4292363,1373403,1303701,1042439,2,2,2,2
2025-09-03 13:06:33.962,6389552,1373423,1303784,1042463,2,2,2,2
2025-09-03 13:06:33.963,6389634,1373184,1303799,1042540,2,2,2,2
2025-09-03 13:06:33.963,6373351,1373214,1303578,1042639,2,2,2,2
2025-09-03 13:06:33.963,2195221,1373385,1303687,1042682,2,2,2,2
2025-09-03 13:06:33.963,6389626,1373424,1303790,1042718,2,2,2,2
2025-09-03 13:06:33.964,6389707,1373442,1303807,1042798,2,2,2,2
2025-09-03 13:06:33.964,6406156,1373566,1295735,1042910,2,2,2,2
2025-09-03 13:06:33.964,6406221,1373595,1295765,1042936,2,2,2,2
2025-09-03 13:06:33.965,6389905,1373688,1304049,1042711,2,2,2,2
2025-09-03 13:06:33.965,2195709,1373471,3400985,1042810,2,2,2,2
2025-09-03 13:06:33.965,6389857,1373567,1303924,1034645,2,2,2,2
2025-09-03 13:06:33.965,6389813,3470733,1304008,1042846,2,2,2,2
2025-09-03 13:06:33.966,4292753,1373667,1303967,1042927,2,2,2,2
2025-09-03 13:06:33.966,6390007,1373706,1304066,1042960,2,2,2,2
2025-09-03 13:06:33.966,2195810,1373747,1304175,1043001,2,2,2,2
2025-09-03 13:06:33.966,2195852,1373912,3401371,1043169,2,2,2,2
2025-09-03 13:06:33.967,6390263,3471103,1304073,1042955,2,2,2,2
2025-09-03 13:06:33.967,4292960,1373774,1304183,1043063,2,2,2,2
2025-09-03 13:06:33.967,6390077,1373833,1304212,1043091,2,2,2,2
2025-09-03 13:06:33.967,6406606,1373846,1304291,1043101,2,2,2,2
2025-09-03 13:06:33.968,2212346,1373947,1304328,1043192,2,2,2,2
2025-09-03 13:06:33.968,6390271,1373948,1304328,1043184,2,2,2,2
2025-09-03 13:06:33.968,6390284,1373961,1304340,1043193,2,2,2,2
2025-09-03 13:06:33.969,6406687,1373979,1304423,1043206,2,2,2,2
2025-09-03 13:06:33.969,6406788,1374078,1296264,1043235,2,2,2,2
2025-09-03 13:06:33.969,6406801,1374085,1296273,1043238,2,2,2,2
2025-09-03 13:06:33.970,6390428,1374093,1304536,1043308,2,2,2,2
2025-09-03 13:06:33.970,2196203,1374167,1304547,1043312,2,2,2,2
2025-09-03 13:06:33.970,6390273,1374185,1304569,1035135,2,2,2,2
2025-09-03 13:06:33.970,6390297,1374204,1304333,1035154,2,2,2,2
2025-09-03 13:06:33.971,6406764,1373961,1304350,1043426,2,2,2,2
2025-09-03 13:06:33.971,6390388,1373963,1304357,1043430,2,2,2,2
2025-09-03 13:06:33.971,2196095,1373969,3401583,1043437,2,2,2,2
2025-09-03 13:06:33.971,2196105,1373977,3401591,1043443,2,2,2,2
2025-09-03 13:06:33.972,6390489,3471206,1304454,1043452,2,2,2,2
2025-09-03 13:06:33.972,4293368,1374080,1304544,1035027,2,2,2,2
2025-09-03 13:06:33.972,6390540,1374092,1304558,1043296,2,2,2,2
2025-09-03 13:06:33.972,6406931,1374096,1304560,1043230,2,2,2,2
2025-09-03 13:06:33.973,2196323,1374173,1304574,1043232,2,2,2,2
2025-09-03 13:06:33.973,4293478,1374169,1304570,1043229,2,2,2,2
2025-09-03 13:06:33.973,4293486,1374173,1304573,1043229,2,2,2,2
2025-09-03 13:06:33.974,6407043,1374190,1304590,1043309,2,2,2,2
2025-09-03 13:06:33.974,6407157,1374231,1304697,1043413,2,2,2,2
2025-09-03 13:06:33.974,6406921,1374312,1304718,1043426,2,2,2,2
2025-09-03 13:06:33.975,6390557,1374330,1304804,1043441,2,2,2,2
2025-09-03 13:06:33.975,2196330,1374407,1304821,1043446,2,2,2,2
2025-09-03 13:06:33.976,2212846,1374214,1304699,1043496,2,2,2,2
2025-09-03 13:06:33.976,6407158,1374217,1296508,1043493,2,2,2,2
2025-09-03 13:06:33.976,2196478,1374224,3401857,1043528,2,2,2,2
2025-09-03 13:06:33.976,2196499,1374234,3401872,1043573,2,2,2,2
2025-09-03 13:06:33.977,6390813,1374239,1304756,1043573,2,2,2,2
2025-09-03 13:06:33.977,6390806,3471380,1304786,1043561,2,2,2,2
2025-09-03 13:06:33.977,6390811,1374231,1304791,1043565,2,2,2,2
2025-09-03 13:06:33.977,6390892,1374311,1304803,1043579,2,2,2,2
2025-09-03 13:06:33.978,2196610,1374267,3401973,1043596,2,2,2,2
2025-09-03 13:06:33.978,2196627,1374408,3401981,1043670,2,2,2,2
2025-09-03 13:06:33.978,6390941,1374347,1304832,1035417,2,2,2,2
2025-09-03 13:06:33.978,4293861,1374415,1304833,1043608,2,2,2,2
2025-09-03 13:06:33.979,2196726,1374428,1304849,1043686,2,2,2,2
2025-09-03 13:06:33.979,6407179,1374446,1304938,1043705,2,2,2,2
2025-09-03 13:06:33.979,6390816,3471617,1304960,1043464,2,2,2,2
2025-09-03 13:06:33.979,2212968,1374472,1304961,1043463,2,2,2,2
2025-09-03 13:06:33.980,6390821,1374465,1304895,1043457,2,2,2,2
2025-09-03 13:06:33.980,2196584,1374466,1304955,1043706,2,2,2,2
2025-09-03 13:06:33.981,6390939,1374570,1305057,1035285,2,2,2,2
2025-09-03 13:06:33.981,6407420,1374599,1296640,1043505,2,2,2,2
2025-09-03 13:06:33.981,2196758,1374688,3402008,1043591,2,2,2,2
2025-09-03 13:06:33.981,2196861,1374719,1304953,1043652,2,2,2,2
2025-09-03 13:06:33.982,6391267,1374495,1305022,1043713,2,2,2,2
2025-09-03 13:06:33.982,6391284,3471721,1305039,1043724,2,2,2,2
2025-09-03 13:06:33.982,6391292,1374571,1305078,1043726,2,2,2,2
2025-09-03 13:06:33.982,6391047,1374579,1305085,1043731,2,2,2,2
2025-09-03 13:06:33.983,6391047,1374581,1305087,1043729,2,2,2,2
2025-09-03 13:06:33.983,2196760,1374660,3402257,1043748,2,2,2,2
2025-09-03 13:06:33.983,4294002,1374649,1305188,1035640,2,2,2,2
2025-09-03 13:06:33.983,4294008,1374650,1305191,1035641,2,2,2,2
2025-09-03 13:06:33.984,6407556,1374688,1297012,1043906,2,2,2,2
2025-09-03 13:06:33.984,6407648,1374710,1305233,1043868,2,2,2,2
2025-09-03 13:06:33.984,6391296,3471884,1305293,1043949,2,2,2,2
2025-09-03 13:06:33.984,6391314,3471903,1305340,1043963,2,2,2,2
2025-09-03 13:06:33.985,6391353,1374853,1305117,1043808,2,2,2,2
2025-09-03 13:06:33.985,4294368,1374957,1305219,1043842,2,2,2,2
2025-09-03 13:06:33.986,6391411,1374848,1305361,1035786,2,2,2,2
2025-09-03 13:06:33.986,6407812,1374864,1305444,1043994,2,2,2,2
2025-09-03 13:06:33.986,6407867,1374944,1305463,1044073,2,2,2,2
2025-09-03 13:06:33.986,2197244,1374973,1305494,1044101,2,2,2,2
2025-09-03 13:06:33.987,6391600,1375082,1305350,1044208,2,2,2,2
2025-09-03 13:06:33.987,6391557,1375228,1305554,1044090,2,2,2,2
2025-09-03 13:06:33.987,6408053,1375079,1297405,1044196,2,2,2,2
2025-09-03 13:06:33.988,6391693,1375096,1305619,1044215,2,2,2,2
2025-09-03 13:06:33.988,2197479,1375178,3402856,1044233,2,2,2,2
2025-09-03 13:06:33.988,6391800,3472277,1305651,1044243,2,2,2,2
2025-09-03 13:06:33.988,6391816,1375171,1305728,1036063,2,2,2,2
2025-09-03 13:06:33.989,4294679,1375213,1305741,1044328,2,2,2,2
2025-09-03 13:06:33.989,6391904,1375215,1305814,1044328,2,2,2,2
2025-09-03 13:06:33.989,6391862,1375236,1305801,1044343,2,2,2,2
2025-09-03 13:06:33.989,2197641,1375253,3403001,1044416,2,2,2,2
2025-09-03 13:06:33.990,6392042,3472498,1305620,1044379,2,2,2,2
2025-09-03 13:06:33.990,4294902,1375356,1305628,1044452,2,2,2,2
2025-09-03 13:06:33.990,6408200,1375367,1297508,1044459,2,2,2,2
2025-09-03 13:06:33.990,6391830,1375381,1305652,1044467,2,2,2,2
2025-09-03 13:06:33.991,2213912,1375380,1305718,1044459,2,2,2,2
2025-09-03 13:06:33.991,4294763,1375427,1305738,1036280,2,2,2,2
2025-09-03 13:06:33.991,2197637,1375481,1305829,1044239,2,2,2,2
2025-09-03 13:06:33.992,6408409,1375241,1305849,1044321,2,2,2,2
2025-09-03 13:06:33.992,2214127,1375259,1305867,1044268,2,2,2,2
2025-09-03 13:06:33.992,6392072,1375345,1305891,1044353,2,2,2,2
2025-09-03 13:06:33.993,6392092,1375362,1305908,1044364,2,2,2,2
2025-09-03 13:06:33.993,2197874,1375442,1305993,1044411,2,2,2,2
2025-09-03 13:06:33.993,6392261,1375457,1306035,1044457,2,2,2,2
2025-09-03 13:06:33.993,6392207,1375461,1306010,1036265,2,2,2,2
2025-09-03 13:06:33.994,6408674,1375470,1306089,1044467,2,2,2,2
2025-09-03 13:06:33.994,6392313,1375485,1306106,1044484,2,2,2,2
2025-09-03 13:06:33.994,2197785,1375509,1305876,1044537,2,2,2,2
2025-09-03 13:06:33.994,2197893,1375550,3403136,1044611,2,2,2,2
2025-09-03 13:06:33.995,6392296,3472798,1306049,1044704,2,2,2,2
2025-09-03 13:06:33.995,4295175,1375735,1306105,1044727,2,2,2,2
2025-09-03 13:06:33.995,6408759,1375495,1297929,1044483,2,2,2,2
2025-09-03 13:06:33.995,6408739,1375508,1306134,1044488,2,2,2,2
2025-09-03 13:06:33.996,2198167,1375687,1306244,1044525,2,2,2,2
2025-09-03 13:06:33.996,6392572,1375686,1306338,1044616,2,2,2,2
2025-09-03 13:06:33.996,4295197,1375749,1306112,1044639,2,2,2,2
2025-09-03 13:06:33.997,6408777,1375760,1306128,1044715,2,2,2,2
2025-09-03 13:06:33.997,2198166,1375797,1306232,1044756,2,2,2,2
2025-09-03 13:06:33.997,6408943,1375880,1306256,1044776,2,2,2,2
2025-09-03 13:06:33.998,6392578,1375895,1306336,1044850,2,2,2,2
2025-09-03 13:06:33.998,2198286,1375974,1306348,1044860,2,2,2,2
2025-09-03 13:06:33.998,6392600,1375983,1306360,1044869,2,2,2,2
2025-09-03 13:06:33.999,2214780,1375755,1306392,1044962,2,2,2,2
2025-09-03 13:06:33.999,6392726,1375773,1306414,1044983,2,2,2,2
2025-09-03 13:06:33.999,2198501,1375794,1306496,1044744,2,2,2,2
2025-09-03 13:06:33.999,2198524,1375945,3403669,1044796,2,2,2,2
2025-09-03 13:06:34.000,6392596,1375968,1306609,1044847,2,2,2,2
2025-09-03 13:06:34.000,6392685,1375990,1306374,1044864,2,2,2,2
2025-09-03 13:06:34.000,6409095,1376015,1298204,1044950,2,2,2,2
2025-09-03 13:06:34.000,6409161,1376107,1306489,1044977,2,2,2,2
2025-09-03 13:06:34.001,2198534,1376201,3403669,1044998,2,2,2,2
2025-09-03 13:06:34.001,6392859,3473308,1306599,1045012,2,2,2,2
2025-09-03 13:06:34.001,6392884,3473389,1306618,1045092,2,2,2,2
2025-09-03 13:06:34.001,4295817,1376251,1306637,1045104,2,2,2,2
2025-09-03 13:06:34.002,6409401,1376003,1306648,1045047,2,2,2,2
2025-09-03 13:06:34.002,2214934,1376112,1306765,1045220,2,2,2,2
2025-09-03 13:06:34.003,6392888,1376148,1306860,1044993,2,2,2,2
2025-09-03 13:06:34.003,6409439,1376250,1306646,1045089,2,2,2,2
2025-09-03 13:06:34.003,6409466,1310739,1306740,1045111,2,2,2,2
2025-09-03 13:06:34.004,2215188,1310764,1306766,1045197,2,2,2,2
2025-09-03 13:06:34.004,6393193,1310841,1306843,1045148,2,2,2,2
2025-09-03 13:06:34.004,6393221,1310863,1306867,1045235,2,2,2,2
2025-09-03 13:06:34.004,2198930,1310937,1306876,1045244,2,2,2,2
2025-09-03 13:06:34.005,6393320,1310955,1306893,1045257,2,2,2,2
2025-09-03 13:06:34.005,6409720,1310968,1306976,1045265,2,2,2,2
2025-09-03 13:06:34.005,6409475,1310974,1306988,1045272,2,2,2,2
2025-09-03 13:06:34.005,6393099,1310721,1306932,1045270,2,2,2,2
2025-09-03 13:06:34.006,2198811,1310730,1307006,1045313,2,2,2,2
2025-09-03 13:06:34.006,6393130,3407890,1307019,1045356,2,2,2,2
2025-09-03 13:06:34.006,6393142,3407899,1307057,1045366,2,2,2,2
2025-09-03 13:06:34.006,4296061,1310785,1307030,1045372,2,2,2,2
2025-09-03 13:06:34.007,6409612,1310828,1307108,1045444,2,2,2,2
2025-09-03 13:06:34.007,2198940,1310779,3404273,1045424,2,2,2,2
2025-09-03 13:06:34.007,2199008,1310778,3404272,1045388,2,2,2,2
2025-09-03 13:06:34.007,6393308,3407987,1307082,1045380,2,2,2,2
2025-09-03 13:06:34.008,6393240,1310795,1307038,1045368,2,2,2,2
2025-09-03 13:06:34.008,6409671,1310834,1307110,1045370,2,2,2,2
2025-09-03 13:06:34.008,6393349,1310862,1306881,1045397,2,2,2,2
2025-09-03 13:06:34.009,2199169,1310969,1306998,1045251,2,2,2,2
2025-09-03 13:06:34.009,6393494,1310990,1307083,1045265,2,2,2,2
2025-09-03 13:06:34.009,4296429,1311045,1307038,1045345,2,2,2,2
2025-09-03 13:06:34.009,6409975,1311084,1307109,1045280,2,2,2,2
2025-09-03 13:06:34.010,6393361,1311111,1307131,1045363,2,2,2,2
2025-09-03 13:06:34.010,2215538,1311215,1307234,1045465,2,2,2,2
2025-09-03 13:06:34.010,2215568,1310989,1307270,1045496,2,2,2,2
2025-09-03 13:06:34.010,6393581,1311076,1307363,1045516,2,2,2,2
2025-09-03 13:06:34.011,2199301,1311033,1307384,1045601,2,2,2,2
2025-09-03 13:06:34.011,6393629,3408269,1307145,1045619,2,2,2,2
2025-09-03 13:06:34.012,2215816,1311220,1307245,1045717,2,2,2,2
2025-09-03 13:06:34.012,6393813,1311232,1307188,1045658,2,2,2,2
2025-09-03 13:06:34.012,2199522,1311239,3404410,1045696,2,2,2,2
2025-09-03 13:06:34.012,2199530,1311242,3404415,1045694,2,2,2,2
2025-09-03 13:06:34.012,6393838,1311237,1307261,1045654,2,2,2,2
2025-09-03 13:06:34.013,6393836,3408385,1307199,1045643,2,2,2,2
2025-09-03 13:06:34.013,6410177,1311218,1307256,1045563,2,2,2,2
2025-09-03 13:06:34.013,6393835,1311226,1307195,1045631,2,2,2,2
2025-09-03 13:06:34.013,2199549,1311242,1307272,1045642,2,2,2,2
2025-09-03 13:06:34.014,2199305,1311251,3404436,1045715,2,2,2,2
2025-09-03 13:06:34.014,4296547,1311308,1307376,1045740,2,2,2,2
2025-09-03 13:06:34.014,4296585,1311374,1307415,1045518,2,2,2,2
2025-09-03 13:06:34.014,6410183,1311459,1307505,1045535,2,2,2,2
2025-09-03 13:06:34.015,6410254,1311235,1307538,1045629,2,2,2,2
2025-09-03 13:06:34.015,2216051,1311333,1307635,1045724,2,2,2,2
2025-09-03 13:06:34.015,2216160,1311437,1307414,1045760,2,2,2,2
2025-09-03 13:06:34.015,6393871,1311481,1307455,1045865,2,2,2,2
2025-09-03 13:06:34.016,6393961,1311505,1307612,1045892,2,2,2,2
2025-09-03 13:06:34.016,2207972,1311682,1307664,1045999,2,2,2,2
2025-09-03 13:06:34.017,6410482,1311626,1307674,1046006,2,2,2,2
2025-09-03 13:06:34.017,2199811,1311705,1307753,1045763,2,2,2,2
2025-09-03 13:06:34.017,2199837,1311727,1307779,1045814,2,2,2,2
2025-09-03 13:06:34.017,6394158,1311489,1307800,1045863,2,2,2,2
2025-09-03 13:06:34.018,6394305,3408658,1307855,1045883,2,2,2,2
2025-09-03 13:06:34.018,6410639,1311515,1307900,1045953,2,2,2,2
2025-09-03 13:06:34.018,6410678,1311518,1307903,1045820,2,2,2,2
2025-09-03 13:06:34.018,6394342,1311597,1307664,1045895,2,2,2,2
2025-09-03 13:06:34.019,2199820,1311697,3404917,1045958,2,2,2,2
2025-09-03 13:06:34.019,6394216,1311690,1307790,1046012,2,2,2,2
2025-09-03 13:06:34.019,6394250,1311755,1307884,1046038,2,2,2,2
2025-09-03 13:06:34.019,6410733,1311848,1307910,1046070,2,2,2,2
2025-09-03 13:06:34.020,6410802,1311880,1308013,1046166,2,2,2,2
2025-09-03 13:06:34.020,2208367,1311963,1308038,1046250,2,2,2,2
2025-09-03 13:06:34.020,6394567,1311978,1308088,1046264,2,2,2,2
2025-09-03 13:06:34.020,6394580,3409143,1308134,1046270,2,2,2,2
2025-09-03 13:06:34.021,4297375,1311750,1308147,1046025,2,2,2,2
2025-09-03 13:06:34.021,6394380,1311850,1307937,1046125,2,2,2,2
2025-09-03 13:06:34.022,2216556,1311876,1308026,1046208,2,2,2,2
2025-09-03 13:06:34.022,2200178,1311950,1308029,1046143,2,2,2,2
2025-09-03 13:06:34.022,2200186,1311953,1308029,1046142,2,2,2,2
2025-09-03 13:06:34.022,2200188,1311954,3405180,1046140,2,2,2,2
2025-09-03 13:06:34.023,6394430,1311886,1308022,1046136,2,2,2,2
2025-09-03 13:06:34.023,6410882,1311883,1308020,1046076,2,2,2,2
2025-09-03 13:06:34.023,6394563,1311879,1307954,1046138,2,2,2,2
2025-09-03 13:06:34.023,6394505,1311875,1307958,1046134,2,2,2,2
2025-09-03 13:06:34.024,2200207,1311942,3405181,1046137,2,2,2,2
2025-09-03 13:06:34.024,6394600,1311902,1308056,1046163,2,2,2,2
2025-09-03 13:06:34.024,6394648,1312010,1308161,1046268,2,2,2,2
2025-09-03 13:06:34.024,4297588,1312066,1308182,1046288,2,2,2,2
2025-09-03 13:06:34.025,6411148,1312120,1308269,1046302,2,2,2,2
2025-09-03 13:06:34.025,2208742,1312200,3405442,1046319,2,2,2,2
2025-09-03 13:06:34.025,6394873,1312154,1308304,1046397,2,2,2,2
2025-09-03 13:06:34.025,6394638,3409389,1308355,1046413,2,2,2,2
2025-09-03 13:06:34.026,4297573,1312008,1308412,1046428,2,2,2,2
2025-09-03 13:06:34.026,6394746,1312028,1308174,1046505,2,2,2,2
2025-09-03 13:06:34.026,6394768,1312111,1308197,1046522,2,2,2,2
2025-09-03 13:06:34.027,2216977,1312234,1308384,1046315,2,2,2,2
2025-09-03 13:06:34.027,4297842,1312257,1308411,1046400,2,2,2,2
2025-09-03 13:06:34.027,6411407,1312278,1308437,1046487,2,2,2,2
2025-09-03 13:06:34.027,6411461,1312360,1308522,1046507,2,2,2,2
2025-09-03 13:06:34.028,6394886,1312385,1308609,1046525,2,2,2,2
2025-09-03 13:06:34.028,6394896,3409540,1308614,1046521,2,2,2,2
2025-09-03 13:06:34.028,6394911,1312405,1308627,1046533,2,2,2,2
2025-09-03 13:06:34.029,2200695,1312491,1308652,1046582,2,2,2,2
2025-09-03 13:06:34.029,6395076,3409653,1308662,1046558,2,2,2,2
2025-09-03 13:06:34.030,4297885,1312267,1308432,1046636,2,2,2,2
2025-09-03 13:06:34.030,6411517,1312359,1308524,1046724,2,2,2,2
2025-09-03 13:06:34.030,2209041,1312311,3405695,1046706,2,2,2,2
2025-09-03 13:06:34.030,6395189,1312402,1308641,1046766,2,2,2,2
2025-09-03 13:06:34.030,6395351,3409644,1308674,1046535,2,2,2,2
2025-09-03 13:06:34.031,6395371,1312514,1308697,1046555,2,2,2,2
2025-09-03 13:06:34.031,6411760,1312524,1308768,1046559,2,2,2,2
2025-09-03 13:06:34.031,6395386,1312531,1308706,1046632,2,2,2,2
2025-09-03 13:06:34.032,2209051,1312549,1308789,1046725,2,2,2,2
2025-09-03 13:06:34.032,4298013,1312551,1308791,1046659,2,2,2,2
2025-09-03 13:06:34.032,4298096,1312628,1308807,1046669,2,2,2,2
2025-09-03 13:06:34.032,6411637,1312625,1308813,1046729,2,2,2,2
2025-09-03 13:06:34.033,6395261,1312629,1308882,1046666,2,2,2,2
2025-09-03 13:06:34.033,2217357,1312640,1308826,1046736,2,2,2,2
2025-09-03 13:06:34.033,2217452,1312666,1308918,1046761,2,2,2,2
2025-09-03 13:06:34.033,6395406,1312761,1308696,1046787,2,2,2,2
2025-09-03 13:06:34.034,2201192,1312526,1308780,1046799,2,2,2,2
2025-09-03 13:06:34.034,6395589,3409765,1308806,1046887,2,2,2,2
2025-09-03 13:06:34.035,2217702,1312649,1308901,1046983,2,2,2,2
2025-09-03 13:06:34.035,6395637,1312660,1308908,1046928,2,2,2,2
2025-09-03 13:06:34.035,2201089,1312731,3406074,1046965,2,2,2,2
2025-09-03 13:06:34.035,2201119,1312765,3406109,1047024,2,2,2,2
2025-09-03 13:06:34.035,6395455,1312794,1309048,1046791,2,2,2,2
2025-09-03 13:06:34.036,6395541,1312877,1309066,1046807,2,2,2,2
2025-09-03 13:06:34.036,6411972,1312886,1309080,1046821,2,2,2,2
2025-09-03 13:06:34.036,6395636,1312897,1309160,1046899,2,2,2,2
2025-09-03 13:06:34.036,2201348,1312977,1309178,1046909,2,2,2,2
2025-09-03 13:06:34.037,6395674,1312996,1308940,1046925,2,2,2,2
2025-09-03 13:06:34.037,4298614,1313020,1309024,1047009,2,2,2,2
2025-09-03 13:06:34.037,4298636,1312816,1309037,1047024,2,2,2,2
2025-09-03 13:06:34.037,6412217,1312798,1309048,1047031,2,2,2,2
2025-09-03 13:06:34.038,6395884,1312873,1309122,1047036,2,2,2,2
2025-09-03 13:06:34.038,2217980,1312883,1309069,1047040,2,2,2,2
2025-09-03 13:06:34.038,6395654,1312885,1309077,1047046,2,2,2,2
2025-09-03 13:06:34.038,6395664,1312891,1309152,1047056,2,2,2,2
2025-09-03 13:06:34.039,4298598,1312973,1309176,1047142,2,2,2,2
2025-09-03 13:06:34.040,2209683,1313015,1309281,1047238,2,2,2,2
2025-09-03 13:06:34.040,6395856,3410162,1309213,1047164,2,2,2,2
2025-09-03 13:06:34.040,2201491,1313015,1309281,1047166,2,2,2,2
2025-09-03 13:06:34.040,2201582,1313035,1309304,1047216,2,2,2,2
2025-09-03 13:06:34.040,6395908,1313121,1309324,1047265,2,2,2,2
2025-09-03 13:06:34.041,6395933,1313142,1309342,1047284,2,2,2,2
2025-09-03 13:06:34.041,6396041,1313180,1309191,1047065,2,2,2,2
2025-09-03 13:06:34.041,6396135,1313271,1309216,1047154,2,2,2,2
2025-09-03 13:06:34.041,2201603,1313033,1309300,1047176,2,2,2,2
2025-09-03 13:06:34.042,6412326,1313128,1309331,1047268,2,2,2,2
2025-09-03 13:06:34.042,6396043,1313161,1309431,1047298,2,2,2,2
2025-09-03 13:06:34.042,6396138,1313223,1309458,1047322,2,2,2,2
2025-09-03 13:06:34.042,6412549,1313279,1309546,1047345,2,2,2,2
2025-09-03 13:06:34.043,6396174,1313283,1309485,1047413,2,2,2,2
2025-09-03 13:06:34.043,2210060,1313276,1309545,1047338,2,2,2,2
2025-09-03 13:06:34.043,6396187,1313282,1309560,1047406,2,2,2,2
2025-09-03 13:06:34.043,6396280,1313334,1309582,1047425,2,2,2,2
2025-09-03 13:06:34.044,4299144,1313346,1309596,1047434,2,2,2,2
2025-09-03 13:06:34.044,6396302,1313309,1309656,1047427,2,2,2,2
2025-09-03 13:06:34.044,2210202,1313321,3406819,1047499,2,2,2,2
2025-09-03 13:06:34.045,2218470,1313398,1309679,1047511,2,2,2,2
2025-09-03 13:06:34.045,2202094,1313337,1309685,1047450,2,2,2,2
2025-09-03 13:06:34.045,2201870,1313494,1309455,1047537,2,2,2,2
2025-09-03 13:06:34.045,6412591,1313526,1309552,1047311,2,2,2,2
2025-09-03 13:06:34.046,6396365,1313295,1309574,1047402,2,2,2,2
2025-09-03 13:06:34.046,6396374,1313300,1309647,1047404,2,2,2,2
2025-09-03 13:06:34.046,6396371,1313296,1309640,1047397,2,2,2,2
2025-09-03 13:06:34.046,4299165,1313307,1309585,1047404,2,2,2,2
2025-09-03 13:06:34.047,2202093,1313318,3406750,1047413,2,2,2,2
2025-09-03 13:06:34.047,6396428,1313412,1309691,1047436,2,2,2,2
2025-09-03 13:06:34.047,6396520,1313434,1309721,1047521,2,2,2,2
2025-09-03 13:06:34.047,6412915,1313511,1309799,1047528,2,2,2,2
2025-09-03 13:06:34.048,6412930,1313522,1309811,1047537,2,2,2,2
2025-09-03 13:06:34.048,2210453,1313539,3406980,1047550,2,2,2,2
2025-09-03 13:06:34.048,6396665,3410784,1309890,1047573,2,2,2,2
2025-09-03 13:06:34.048,6396449,3410818,1309705,1047670,2,2,2,2
2025-09-03 13:06:34.049,4299400,1313729,1309803,1047701,2,2,2,2
2025-09-03 13:06:34.049,6396646,1313789,1309891,1047791,2,2,2,2
2025-09-03 13:06:34.049,6396677,1313556,1309919,1047562,2,2,2,2
2025-09-03 13:06:34.049,2210579,1313565,3407083,1047606,2,2,2,2
2025-09-03 13:06:34.050,2218857,1313581,1309950,1047589,2,2,2,2
2025-09-03 13:06:34.050,4299638,1313594,1309963,1047665,2,2,2,2
2025-09-03 13:06:34.050,6413181,1313663,1309970,1047606,2,2,2,2
2025-09-03 13:06:34.050,6413195,1313670,1309980,1047677,2,2,2,2
2025-09-03 13:06:34.051,6413287,1313761,1310067,1047753,2,2,2,2
2025-09-03 13:06:34.051,6396923,3410927,1310145,1047701,2,2,2,2
2025-09-03 13:06:34.051,4299527,1313782,1310091,1047776,2,2,2,2
2025-09-03 13:06:34.052,2202466,1313812,1310185,1047797,2,2,2,2
2025-09-03 13:06:34.052,6396794,1313896,1310204,1047816,2,2,2,2
2025-09-03 13:06:34.052,6396823,1313922,1309973,1047837,2,2,2,2
2025-09-03 13:06:34.052,6413293,1313945,1310059,1047854,2,2,2,2
2025-09-03 13:06:34.053,6396930,1314029,1310014,1047934,2,2,2,2
2025-09-03 13:06:34.053,2210846,1313804,3407259,1047992,2,2,2,2
2025-09-03 13:06:34.053,6396991,1313898,1310204,1048053,2,2,2,2
2025-09-03 13:06:34.053,6397147,3411079,1310269,1047824,2,2,2,2
2025-09-03 13:06:34.054,6397182,1313990,1310332,1047919,2,2,2,2
2025-09-03 13:06:34.054,6396958,1314051,1310424,1047941,2,2,2,2
2025-09-03 13:06:34.054,6397043,1314069,1310444,1047958,2,2,2,2
2025-09-03 13:06:34.055,2210963,1314086,1310212,1048036,2,2,2,2
2025-09-03 13:06:34.055,4300011,1314168,1310232,1048053,2,2,2,2
2025-09-03 13:06:34.055,6413566,1314184,1310312,1048067,2,2,2,2
2025-09-03 13:06:34.055,6413635,1314278,1310347,1048097,2,2,2,2
2025-09-03 13:06:34.056,6397307,1314297,1310434,1048179,2,2,2,2
2025-09-03 13:06:34.056,6397383,3411200,1310445,1048184,2,2,2,2
2025-09-03 13:06:34.056,6397408,3411221,1310467,1048200,2,2,2,2
2025-09-03 13:06:34.056,6397199,1314172,1310509,1048300,2,2,2,2
2025-09-03 13:06:34.057,2202996,1314271,1310606,1048075,2,2,2,2
2025-09-03 13:06:34.057,2211223,1314298,3407848,1048104,2,2,2,2
2025-09-03 13:06:34.057,2211320,1314329,3407621,1048126,2,2,2,2
2025-09-03 13:06:34.057,2219549,1314424,1310566,1048283,2,2,2,2
2025-09-03 13:06:34.058,6397488,1314445,1310523,1048299,2,2,2,2
2025-09-03 13:06:34.058,6397564,1314451,1310660,1048303,2,2,2,2
2025-09-03 13:06:34.058,6414020,1314458,1310599,1048304,2,2,2,2
2025-09-03 13:06:34.058,6397653,1314532,1310641,1048309,2,2,2,2
2025-09-03 13:06:34.059,6397664,1314535,1310617,1048312,2,2,2,2
2025-09-03 13:06:34.059,6414015,1314532,1310616,1048307,2,2,2,2
2025-09-03 13:06:34.059,6397670,1314542,1310687,1048311,2,2,2,2
2025-09-03 13:06:34.059,2203383,1314553,1310696,1048318,2,2,2,2
2025-09-03 13:06:34.060,6397450,1314315,1310715,1048330,2,2,2,2
2025-09-03 13:06:34.060,6397463,1314360,1245195,1048342,2,2,2,2
2025-09-03 13:06:34.060,6413851,1314330,1245193,1048346,2,2,2,2
2025-09-03 13:06:34.060,6413896,1314408,1245201,1048354,2,2,2,2
2025-09-03 13:06:34.061,6397552,1314417,1245209,1048425,2,2,2,2
2025-09-03 13:06:34.061,6397634,1314432,1245259,1048437,2,2,2,2
2025-09-03 13:06:34.061,6397658,3411608,1245316,1048455,2,2,2,2
2025-09-03 13:06:34.061,6397664,1314455,1245383,1048457,2,2,2,2
2025-09-03 13:06:34.062,6414024,1314462,1245324,1048522,2,2,2,2
2025-09-03 13:06:34.062,6414072,1314539,1245336,1048467,2,2,2,2
2025-09-03 13:06:34.063,2211712,1314607,1245213,1048340,2,2,2,2
2025-09-03 13:06:34.063,6397919,3411848,1245241,1048423,2,2,2,2
2025-09-03 13:06:34.063,6397947,1314786,1245390,1048441,2,2,2,2
2025-09-03 13:06:34.063,2203412,1314806,1245412,1048496,2,2,2,2
2025-09-03 13:06:34.063,6397757,1314585,1245450,1048558,2,2,2,2
2025-09-03 13:06:34.064,6397853,1314675,1245542,983049,2,2,2,2
2025-09-03 13:06:34.064,6397942,3411845,1245496,983062,2,2,2,2
2025-09-03 13:06:34.064,6414359,1314719,1245654,983151,2,2,2,2
2025-09-03 13:06:34.064,2220053,1314780,1245592,983145,2,2,2,2
2025-09-03 13:06:34.065,6414366,1314785,1245599,983150,2,2,2,2
2025-09-03 13:06:34.065,6414470,1314820,1245441,983185,2,2,2,2
2025-09-03 13:06:34.065,6414562,1314845,1245464,983271,2,2,2,2
2025-09-03 13:06:34.066,6414585,1323130,1245487,983292,2,2,2,2
2025-09-03 13:06:34.066,2211936,1315036,1245589,983071,2,2,2,2
2025-09-03 13:06:34.066,6414399,1315060,1245644,983156,2,2,2,2
2025-09-03 13:06:34.066,6414493,1314831,1245701,983179,2,2,2,2
2025-09-03 13:06:34.067,6414581,1314917,1245723,983261,2,2,2,2
2025-09-03 13:06:34.067,6414600,1323121,1245740,983275,2,2,2,2
2025-09-03 13:06:34.067,2212113,1314871,3342965,983282,2,2,2,2
2025-09-03 13:06:34.068,6414630,3412103,1245899,983294,2,2,2,2
2025-09-03 13:06:34.068,2220399,1315020,1245844,983295,2,2,2,2
2025-09-03 13:06:34.068,6414704,1314955,1245849,983293,2,2,2,2
2025-09-03 13:06:34.068,2220407,1315026,3343007,983292,2,2,2,2
2025-09-03 13:06:34.069,2212234,1315045,3343087,983302,2,2,2,2
2025-09-03 13:06:34.069,6414748,1315060,1245949,983315,2,2,2,2
2025-09-03 13:06:34.069,6414834,1315078,1245713,983397,2,2,2,2
2025-09-03 13:06:34.069,2220302,1315101,1245798,983416,2,2,2,2
2025-09-03 13:06:34.070,6414621,1315178,1245811,983423,2,2,2,2
2025-09-03 13:06:34.070,6414719,1315203,1245839,983445,2,2,2,2
2025-09-03 13:06:34.070,6414825,1315297,1245936,983537,2,2,2,2
2025-09-03 13:06:34.070,6414857,1315322,1245959,983306,2,2,2,2
2025-09-03 13:06:34.071,6414951,1315094,1245989,983399,2,2,2,2
2025-09-03 13:06:34.071,6414888,1315087,1246024,983327,2,2,2,2
2025-09-03 13:06:34.071,6414949,1315079,1246050,983325,2,2,2,2
2025-09-03 13:06:34.072,6414969,1315090,1246064,983339,2,2,2,2
2025-09-03 13:06:34.072,2220680,1315103,1246079,983412,2,2,2,2
2025-09-03 13:06:34.072,6414989,1323361,1246149,983414,2,2,2,2
2025-09-03 13:06:34.072,2212503,1315115,3343244,983415,2,2,2,2
2025-09-03 13:06:34.073,6415068,3412333,1246093,983414,2,2,2,2
2025-09-03 13:06:34.073,4317929,1315187,1246103,983423,2,2,2,2
2025-09-03 13:06:34.073,6415091,1315198,1246178,983490,2,2,2,2
2025-09-03 13:06:34.073,6415092,1323382,1246175,983417,2,2,2,2
2025-09-03 13:06:34.074,2220556,1315207,1246199,983498,2,2,2,2
2025-09-03 13:06:34.074,6414884,3412382,1245969,983521,2,2,2,2
2025-09-03 13:06:34.075,4317833,1315330,1246070,983556,2,2,2,2
2025-09-03 13:06:34.075,2220701,1315350,1246093,983608,2,2,2,2
2025-09-03 13:06:34.075,2212602,1315371,1246182,983600,2,2,2,2
2025-09-03 13:06:34.076,6415113,3412599,1246194,983674,2,2,2,2
2025-09-03 13:06:34.076,6415121,1315453,1246197,983675,2,2,2,2
2025-09-03 13:06:34.076,6415139,1315463,1246212,983680,2,2,2,2
2025-09-03 13:06:34.076,6415167,1315553,1246235,983700,2,2,2,2
2025-09-03 13:06:34.077,6415343,1315337,1246342,983806,2,2,2,2
2025-09-03 13:06:34.077,4318193,1315336,1246344,983804,2,2,2,2
2025-09-03 13:06:34.077,2221048,1315344,1246351,983554,2,2,2,2
2025-09-03 13:06:34.077,6415116,1315424,1246435,983568,2,2,2,2
2025-09-03 13:06:34.078,6415151,1315457,1246214,983661,2,2,2,2
2025-09-03 13:06:34.078,6415246,1315518,1246306,983683,2,2,2,2
2025-09-03 13:06:34.078,6415308,1315575,1246331,983768,2,2,2,2
2025-09-03 13:06:34.079,6415360,1315590,1246408,983783,2,2,2,2
2025-09-03 13:06:34.079,2212885,1315613,3343509,983792,2,2,2,2
2025-09-03 13:06:34.079,6415407,3412855,1246447,983819,2,2,2,2
2025-09-03 13:06:34.079,4318334,1315709,1246459,983833,2,2,2,2
2025-09-03 13:06:34.080,6415503,1315723,1246470,983843,2,2,2,2
2025-09-03 13:06:34.080,6415594,1324001,1246492,983924,2,2,2,2
2025-09-03 13:06:34.080,2213110,1315827,3343722,983870,2,2,2,2
2025-09-03 13:06:34.080,2221307,1315831,1246574,984000,2,2,2,2
2025-09-03 13:06:34.081,6415372,1315591,1246524,983945,2,2,2,2
2025-09-03 13:06:34.081,6415396,1315610,1246609,983962,2,2,2,2
2025-09-03 13:06:34.081,6415554,1315701,1246699,984048,2,2,2,2
2025-09-03 13:06:34.082,6415585,1315724,1246470,983816,2,2,2,2
2025-09-03 13:06:34.082,6415623,1315817,1246565,983911,2,2,2,2
2025-09-03 13:06:34.082,6415647,1315832,1246520,983930,2,2,2,2
2025-09-03 13:06:34.082,4318582,1315850,1246602,983946,2,2,2,2
2025-09-03 13:06:34.083,2221450,1315872,1246621,983997,2,2,2,2
2025-09-03 13:06:34.083,6415840,1315953,1246704,984044,2,2,2,2
2025-09-03 13:06:34.083,6415861,1315970,1246722,984056,2,2,2,2
2025-09-03 13:06:34.083,6415636,1315991,1246749,984076,2,2,2,2
2025-09-03 13:06:34.083,6415686,1316072,1246831,984088,2,2,2,2
2025-09-03 13:06:34.084,6415741,1324286,1246916,984166,2,2,2,2
2025-09-03 13:06:34.084,6415830,3413011,1246903,984178,2,2,2,2
2025-09-03 13:06:34.085,4318816,1316029,1246751,984312,2,2,2,2
2025-09-03 13:06:34.085,6416009,1316099,1246855,984094,2,2,2,2
2025-09-03 13:06:34.085,2213612,1316132,3344105,984190,2,2,2,2
2025-09-03 13:06:34.085,2221589,1316293,3344144,984260,2,2,2,2
2025-09-03 13:06:34.086,2213492,1316319,1247082,984316,2,2,2,2
2025-09-03 13:06:34.086,6416073,1316328,1247032,984330,2,2,2,2
2025-09-03 13:06:34.086,6416020,1324529,1247039,984336,2,2,2,2
2025-09-03 13:06:34.086,6416071,1316100,1247120,984418,2,2,2,2
2025-09-03 13:06:34.087,6416136,1316192,1247214,984442,2,2,2,2
2025-09-03 13:06:34.087,6416225,1316213,1246976,984461,2,2,2,2
2025-09-03 13:06:34.087,6416240,1316223,1246993,984534,2,2,2,2
2025-09-03 13:06:34.087,4319094,1316226,1246999,984471,2,2,2,2
2025-09-03 13:06:34.088,2221960,1316302,1247078,984545,2,2,2,2
2025-09-03 13:06:34.088,6416343,1316320,1247098,984557,2,2,2,2
2025-09-03 13:06:34.088,6416354,3413480,1247171,984568,2,2,2,2
2025-09-03 13:06:34.088,2222074,1316350,1247128,984331,2,2,2,2
2025-09-03 13:06:34.089,6416139,1316361,1247205,984342,2,2,2,2
2025-09-03 13:06:34.089,6416230,1324570,1247224,984426,2,2,2,2
2025-09-03 13:06:34.089,6416189,1316461,1247245,984443,2,2,2,2
2025-09-03 13:06:34.090,6416371,1316542,1247356,984545,2,2,2,2
2025-09-03 13:06:34.090,6416393,1316595,1247377,984564,2,2,2,2
2025-09-03 13:06:34.090,2222189,1316376,1247478,984594,2,2,2,2
2025-09-03 13:06:34.090,2222220,1316403,3344401,984653,2,2,2,2
2025-09-03 13:06:34.091,2214121,1316557,3344492,984770,2,2,2,2
2025-09-03 13:06:34.091,6416632,3413658,1247287,984716,2,2,2,2
2025-09-03 13:06:34.091,6416394,1316583,1247427,984723,2,2,2,2
2025-09-03 13:06:34.091,6416487,1316604,1247450,984811,2,2,2,2
2025-09-03 13:06:34.092,6416522,1324825,1247483,984586,2,2,2,2
2025-09-03 13:06:34.092,2214121,1316664,3344665,984615,2,2,2,2
2025-09-03 13:06:34.092,2222336,1316751,1247599,984632,2,2,2,2
2025-09-03 13:06:34.092,6416656,1316763,1247681,984703,2,2,2,2
2025-09-03 13:06:34.093,2222355,1316824,1247621,984705,2,2,2,2
2025-09-03 13:06:34.093,6416678,1316841,1247637,984715,2,2,2,2
2025-09-03 13:06:34.093,6416881,1316714,1247509,984841,2,2,2,2
2025-09-03 13:06:34.094,6416661,1316748,1247540,984936,2,2,2,2
2025-09-03 13:06:34.094,4319607,1316843,1247634,984960,2,2,2,2
2025-09-03 13:06:34.094,2222485,1316871,1247725,985016,2,2,2,2
2025-09-03 13:06:34.094,6416884,1316894,1247750,985075,2,2,2,2
2025-09-03 13:06:34.095,6416925,1316996,1247852,984851,2,2,2,2
2025-09-03 13:06:34.095,6417035,1317108,1247895,984890,2,2,2,2
2025-09-03 13:06:34.095,6417132,1325071,1247990,984981,2,2,2,2
2025-09-03 13:06:34.095,6416899,1325152,1247756,984991,2,2,2,2
2025-09-03 13:06:34.096,2214420,1316912,3344923,985035,2,2,2,2
2025-09-03 13:06:34.096,6417032,1317020,1247884,985111,2,2,2,2
2025-09-03 13:06:34.096,6417087,1317098,1247901,985121,2,2,2,2
2025-09-03 13:06:34.097,6417123,1325291,1247969,985184,2,2,2,2
2025-09-03 13:06:34.097,2222749,1317098,3345054,985146,2,2,2,2
2025-09-03 13:06:34.097,6417116,1317093,1247965,985108,2,2,2,2
2025-09-03 13:06:34.097,6417127,3414255,1247973,985117,2,2,2,2
2025-09-03 13:06:34.098,4319990,1317115,1247984,985188,2,2,2,2
2025-09-03 13:06:34.098,6417165,1317133,1248001,985203,2,2,2,2
2025-09-03 13:06:34.098,6417257,1317219,1248026,985225,2,2,2,2
2025-09-03 13:06:34.098,2214788,1317180,1248111,985307,2,2,2,2
2025-09-03 13:06:34.099,6417373,3414415,1248192,985325,2,2,2,2
2025-09-03 13:06:34.099,4320248,1317317,1248150,985089,2,2,2,2
2025-09-03 13:06:34.099,6417165,1317367,1248233,985103,2,2,2,2
2025-09-03 13:06:34.099,6417171,1317370,1248241,985106,2,2,2,2
2025-09-03 13:06:34.100,2222948,1317126,1248005,985115,2,2,2,2
2025-09-03 13:06:34.100,6417267,1317139,1248018,985129,2,2,2,2
2025-09-03 13:06:34.100,2222984,1317159,1248103,985215,2,2,2,2
2025-09-03 13:06:34.101,6417383,1317253,1248133,985241,2,2,2,2
2025-09-03 13:06:34.101,6417411,1317344,1248191,985326,2,2,2,2
2025-09-03 13:06:34.101,6417441,1317375,1248255,985356,2,2,2,2
2025-09-03 13:06:34.101,6417537,1317401,1248278,985380,2,2,2,2
2025-09-03 13:06:34.102,6417566,1317487,1248300,985466,2,2,2,2
2025-09-03 13:06:34.102,2223342,1317439,1248375,985477,2,2,2,2
2025-09-03 13:06:34.102,6417647,3414654,1248372,985475,2,2,2,2
2025-09-03 13:06:34.102,6417634,1317493,1248363,985461,2,2,2,2
2025-09-03 13:06:34.103,6417641,1317495,1248366,985399,2,2,2,2
2025-09-03 13:06:34.103,6417408,1317510,1248448,985478,2,2,2,2
2025-09-03 13:06:34.103,2223118,1317586,3345552,985487,2,2,2,2
2025-09-03 13:06:34.103,2214932,1317593,3345556,985550,2,2,2,2
2025-09-03 13:06:34.104,6417433,3414683,1248442,985485,2,2,2,2
2025-09-03 13:06:34.104,6417460,1317618,1248498,985572,2,2,2,2
2025-09-03 13:06:34.104,6417587,1317384,1248264,985592,2,2,2,2
2025-09-03 13:06:34.104,6417638,1317397,1248280,985350,2,2,2,2
2025-09-03 13:06:34.105,2223387,1317439,1248393,985394,2,2,2,2
2025-09-03 13:06:34.105,6417776,1317521,1248406,985539,2,2,2,2
2025-09-03 13:06:34.105,4320658,1317610,1248502,985503,2,2,2,2
2025-09-03 13:06:34.106,6417852,1317620,1248514,985572,2,2,2,2
2025-09-03 13:06:34.106,6417907,1317640,1248534,985584,2,2,2,2
2025-09-03 13:06:34.106,6417679,3414813,1248588,985600,2,2,2,2
2025-09-03 13:06:34.106,6417766,1317744,1248645,985622,2,2,2,2
2025-09-03 13:06:34.107,6417782,1317759,1248723,985699,2,2,2,2
2025-09-03 13:06:34.107,6417779,1325948,1248715,985621,2,2,2,2
2025-09-03 13:06:34.107,6417727,1317762,1248658,985622,2,2,2,2
2025-09-03 13:06:34.108,2223584,1317789,1248753,985642,2,2,2,2
2025-09-03 13:06:34.108,6417909,1317871,1248516,985658,2,2,2,2
2025-09-03 13:06:34.108,6417931,1325826,1248537,985740,2,2,2,2
2025-09-03 13:06:34.108,2215521,1317651,3345770,985821,2,2,2,2
2025-09-03 13:06:34.109,6417965,3414805,1248589,985824,2,2,2,2
2025-09-03 13:06:34.109,6417981,3414882,1248566,985833,2,2,2,2
2025-09-03 13:06:34.109,6418052,1317734,1248639,985838,2,2,2,2
2025-09-03 13:06:34.109,6418097,1317740,1248649,985843,2,2,2,2
2025-09-03 13:06:34.110,2215569,1317659,3345791,985823,2,2,2,2
2025-09-03 13:06:34.110,6418069,1317660,1248706,985759,2,2,2,2
2025-09-03 13:06:34.110,4320993,1317702,1248658,985833,2,2,2,2
2025-09-03 13:06:34.111,6418115,1317736,1248657,985831,2,2,2,2
2025-09-03 13:06:34.111,6418145,1317736,1248658,985758,2,2,2,2
2025-09-03 13:06:34.111,2223774,1317739,1248658,985815,2,2,2,2
2025-09-03 13:06:34.111,2223846,1317747,1248663,985819,2,2,2,2
2025-09-03 13:06:34.112,6418163,1317752,1248734,985827,2,2,2,2
2025-09-03 13:06:34.112,6418174,1325950,1248734,985829,2,2,2,2
2025-09-03 13:06:34.112,6417930,1317762,1248707,985834,2,2,2,2
2025-09-03 13:06:34.113,6418059,1317887,1248864,985699,2,2,2,2
2025-09-03 13:06:34.113,6418151,1317911,1248895,985660,2,2,2,2
2025-09-03 13:06:34.113,2223872,1317933,3346071,985777,2,2,2,2
2025-09-03 13:06:34.113,2223969,1318090,1249015,985805,2,2,2,2
2025-09-03 13:06:34.114,6418234,1318113,1248781,985851,2,2,2,2
2025-09-03 13:06:34.114,6418329,1318137,1248871,985877,2,2,2,2
2025-09-03 13:06:34.114,4321278,1317908,1248901,985966,2,2,2,2
2025-09-03 13:06:34.114,6418273,1318007,1248999,985997,2,2,2,2
2025-09-03 13:06:34.115,6418307,1326234,1249040,986091,2,2,2,2
2025-09-03 13:06:34.115,2215909,1318139,3346294,985865,2,2,2,2
2025-09-03 13:06:34.115,6418426,1318161,1249163,985884,2,2,2,2
2025-09-03 13:06:34.115,4321296,1318212,1249178,985961,2,2,2,2
2025-09-03 13:06:34.116,4321381,1318197,1249260,985973,2,2,2,2
2025-09-03 13:06:34.116,6418480,1318273,1249272,985981,2,2,2,2
2025-09-03 13:06:34.116,6418643,3415449,1249076,985998,2,2,2,2
2025-09-03 13:06:34.117,6418654,1318302,1249048,986000,2,2,2,2
2025-09-03 13:06:34.117,4321526,1318389,1249134,986085,2,2,2,2
2025-09-03 13:06:34.117,2224159,1318165,3346324,986121,2,2,2,2
2025-09-03 13:06:34.118,6418696,1318382,1249401,986343,2,2,2,2
2025-09-03 13:06:34.118,6418794,1318417,1249438,986114,2,2,2,2
2025-09-03 13:06:34.118,2224510,1318431,1249519,986130,2,2,2,2
2025-09-03 13:06:34.118,2224528,1318442,1249532,986143,2,2,2,2
2025-09-03 13:06:34.119,6418900,1318510,1249535,986143,2,2,2,2
2025-09-03 13:06:34.119,6418931,1318530,1257486,986155,2,2,2,2
2025-09-03 13:06:34.119,6418706,1318559,1249326,986246,2,2,2,2
2025-09-03 13:06:34.120,6418813,1326598,1249501,986350,2,2,2,2
2025-09-03 13:06:34.120,2224617,1318450,3346698,986426,2,2,2,2
2025-09-03 13:06:34.120,2224653,1318615,1249646,986425,2,2,2,2
2025-09-03 13:06:34.120,6419060,1318653,1249683,986524,2,2,2,2
2025-09-03 13:06:34.121,4321933,1318677,1249767,986612,2,2,2,2
2025-09-03 13:06:34.121,6419170,1318759,1249780,986369,2,2,2,2
2025-09-03 13:06:34.121,6419184,1318763,1249791,986369,2,2,2,2
2025-09-03 13:06:34.122,6419184,3415906,1249787,986617,2,2,2,2
2025-09-03 13:06:34.122,4322034,1318715,1249787,986607,2,2,2,2
2025-09-03 13:06:34.122,6419187,1318680,1257976,986598,2,2,2,2
2025-09-03 13:06:34.122,6419180,1326868,1249777,986592,2,2,2,2
2025-09-03 13:06:34.123,2224873,1318667,1249773,986580,2,2,2,2
2025-09-03 13:06:34.123,4322022,1318662,1249765,986509,2,2,2,2
2025-09-03 13:06:34.123,2224881,1318669,1249772,986513,2,2,2,2
2025-09-03 13:06:34.124,6418963,1318760,1249547,986604,2,2,2,2
2025-09-03 13:06:34.124,6419089,1318812,1257853,986395,2,2,2,2
2025-09-03 13:06:34.124,6419170,1318894,1257869,986410,2,2,2,2
2025-09-03 13:06:34.125,6419191,1318908,1249756,986484,2,2,2,2
2025-09-03 13:06:34.125,2224913,1318676,1249779,986501,2,2,2,2
2025-09-03 13:06:34.125,6419241,3415915,1249806,986518,2,2,2,2
2025-09-03 13:06:34.125,6419324,1318780,1249820,986593,2,2,2,2
2025-09-03 13:06:34.126,6419330,1318783,1249823,986592,2,2,2,2
2025-09-03 13:06:34.126,6419348,1318794,1249836,986604,2,2,2,2
2025-09-03 13:06:34.126,2225126,1318874,3347065,986617,2,2,2,2
2025-09-03 13:06:34.126,2225141,1318882,3347078,986626,2,2,2,2
2025-09-03 13:06:34.127,6419201,3416042,1249973,986634,2,2,2,2
2025-09-03 13:06:34.127,4322056,1318861,1249944,986629,2,2,2,2
2025-09-03 13:06:34.127,6419204,1318883,1249936,986617,2,2,2,2
2025-09-03 13:06:34.127,6419205,1318880,1249937,986616,2,2,2,2
2025-09-03 13:06:34.128,6419246,3416063,1250036,986650,2,2,2,2
2025-09-03 13:06:34.128,6419325,1335313,1257988,986661,2,2,2,2
2025-09-03 13:06:34.128,4322183,1318939,1249806,986732,2,2,2,2
2025-09-03 13:06:34.129,6419384,1335398,1249818,986743,2,2,2,2
2025-09-03 13:06:34.129,6419479,3432605,1249999,986857,2,2,2,2
2025-09-03 13:06:34.129,6419576,1335544,1250025,986624,2,2,2,2
2025-09-03 13:06:34.130,6419680,1335321,1250062,986723,2,2,2,2
2025-09-03 13:06:34.130,2225400,1335349,1250152,986744,2,2,2,2
2025-09-03 13:06:34.130,6419470,1335433,1250177,986764,2,2,2,2
2025-09-03 13:06:34.131,2225250,1335437,1250190,986834,2,2,2,2
2025-09-03 13:06:34.131,6419531,1335438,1258389,986835,2,2,2,2
2025-09-03 13:06:34.131,6419589,1327330,1250284,986852,2,2,2,2
2025-09-03 13:06:34.131,2225385,1335553,3347209,986884,2,2,2,2
2025-09-03 13:06:34.132,6419710,1335575,1250107,986902,2,2,2,2
2025-09-03 13:06:34.132,6419731,1319241,1250156,986981,2,2,2,2
2025-09-03 13:06:34.132,6419819,1335678,1250110,986998,2,2,2,2
2025-09-03 13:06:34.132,6419850,1335777,1250277,987028,2,2,2,2
2025-09-03 13:06:34.133,2225637,1335800,1250303,987077,2,2,2,2
2025-09-03 13:06:34.133,2225410,1335569,3347482,987134,2,2,2,2
2025-09-03 13:06:34.133,2225516,1335672,1250432,986914,2,2,2,2
2025-09-03 13:06:34.133,4322712,1319362,1250539,987017,2,2,2,2
2025-09-03 13:06:34.134,6419973,1335824,1258516,987121,2,2,2,2
2025-09-03 13:06:34.134,6420009,1335923,1250423,987155,2,2,2,2
2025-09-03 13:06:34.134,6420182,3433112,1250490,987251,2,2,2,2
2025-09-03 13:06:34.135,4323061,1319667,1250549,995467,2,2,2,2
2025-09-03 13:06:34.135,2225692,1319445,1250582,987371,2,2,2,2
2025-09-03 13:06:34.135,2225785,1335857,3347827,987141,2,2,2,2
2025-09-03 13:06:34.136,2225822,1336018,1250710,987163,2,2,2,2
2025-09-03 13:06:34.136,6420199,1335956,1258910,987166,2,2,2,2
2025-09-03 13:06:34.136,6420201,1335955,1250787,987233,2,2,2,2
2025-09-03 13:06:34.136,6420213,1336033,1250801,987242,2,2,2,2
2025-09-03 13:06:34.137,6420239,1319675,1250571,995449,2,2,2,2
2025-09-03 13:06:34.137,6420238,1336054,1250568,987182,2,2,2,2
2025-09-03 13:06:34.137,6420247,1336054,1250572,987248,2,2,2,2
2025-09-03 13:06:34.138,2226024,1336063,1250585,987260,2,2,2,2
2025-09-03 13:06:34.138,2226056,1336092,3347829,987318,2,2,2,2
2025-09-03 13:06:34.138,4323302,1319798,1250704,995567,2,2,2,2
2025-09-03 13:06:34.138,6420236,1336217,1259000,987409,2,2,2,2
2025-09-03 13:06:34.139,6420331,1336305,1250836,987496,2,2,2,2
2025-09-03 13:06:34.139,6420341,1328125,1250845,987502,2,2,2,2
2025-09-03 13:06:34.139,6420279,3433470,1250878,987496,2,2,2,2
2025-09-03 13:06:34.139,6420441,3433241,1250937,987518,2,2,2,2
2025-09-03 13:06:34.140,6420477,1319802,1250965,995738,2,2,2,2
2025-09-03 13:06:34.140,4323354,1319891,1251050,987633,2,2,2,2
2025-09-03 13:06:34.141,6420591,1320091,1251067,987634,2,2,2,2
2025-09-03 13:06:34.141,6420683,3433710,1251085,987654,2,2,2,2
2025-09-03 13:06:34.141,2226331,1336574,1251094,987667,2,2,2,2
2025-09-03 13:06:34.141,6420667,1336571,1259288,987661,2,2,2,2
2025-09-03 13:06:34.142,6420700,1336575,1251098,987657,2,2,2,2
2025-09-03 13:06:34.142,6420741,1336349,1251132,987751,2,2,2,2
2025-09-03 13:06:34.142,6420769,1336438,1251283,987771,2,2,2,2
2025-09-03 13:06:34.143,6420856,1328262,1251299,987787,2,2,2,2
2025-09-03 13:06:34.143,2226574,1336535,3348469,987834,2,2,2,2
2025-09-03 13:06:34.143,2226681,1336574,1251099,987902,2,2,2,2
2025-09-03 13:06:34.143,2226448,1336598,1251186,987666,2,2,2,2
2025-09-03 13:06:34.144,6420753,1336595,1259377,987659,2,2,2,2
2025-09-03 13:06:34.144,6420756,1336590,1251123,987658,2,2,2,2
2025-09-03 13:06:34.144,6420762,1336592,1251186,987656,2,2,2,2
2025-09-03 13:06:34.145,6420770,3433746,1251193,987652,2,2,2,2
2025-09-03 13:06:34.145,4323688,1320242,1251197,987651,2,2,2,2
2025-09-03 13:06:34.145,6420856,1336606,1251210,987662,2,2,2,2
2025-09-03 13:06:34.145,2226563,1336608,1251216,987697,2,2,2,2
2025-09-03 13:06:34.146,2226574,1336620,3348378,987671,2,2,2,2
2025-09-03 13:06:34.146,6420936,3433835,1251254,987663,2,2,2,2
2025-09-03 13:06:34.146,6420876,1336683,1251286,987659,2,2,2,2
2025-09-03 13:06:34.146,6420915,1336686,1259416,987660,2,2,2,2
2025-09-03 13:06:34.147,6420958,1336691,1251227,987665,2,2,2,2
2025-09-03 13:06:34.147,6420973,3433850,1251301,987671,2,2,2,2
2025-09-03 13:06:34.147,6420998,1320369,1251324,995947,2,2,2,2
2025-09-03 13:06:34.148,4323861,1320416,1251342,987769,2,2,2,2
2025-09-03 13:06:34.148,6421070,1336819,1251426,987788,2,2,2,2
2025-09-03 13:06:34.148,2226836,1336588,1251460,987876,2,2,2,2
2025-09-03 13:06:34.149,6421226,1336607,1251481,987891,2,2,2,2
2025-09-03 13:06:34.149,6420992,1336689,1251569,987908,2,2,2,2
2025-09-03 13:06:34.149,6421006,1328501,1251576,987915,2,2,2,2
2025-09-03 13:06:34.150,2226927,1336847,1251485,988115,2,2,2,2
2025-09-03 13:06:34.150,6421258,1336938,1259767,988138,2,2,2,2
2025-09-03 13:06:34.150,6421352,1328778,1251609,987913,2,2,2,2
2025-09-03 13:06:34.151,2227074,1337063,3348849,987968,2,2,2,2
2025-09-03 13:06:34.151,6421471,3433990,1251726,988028,2,2,2,2
2025-09-03 13:06:34.151,6421492,1320499,1251740,996234,2,2,2,2
2025-09-03 13:06:34.151,4324099,1320485,1251823,988062,2,2,2,2
2025-09-03 13:06:34.152,6421279,1336953,1251590,988150,2,2,2,2
2025-09-03 13:06:34.152,2227069,1337039,3348767,988168,2,2,2,2
2025-09-03 13:06:34.152,6421448,1336980,1251650,988166,2,2,2,2
2025-09-03 13:06:34.152,6421446,3434131,1251619,988165,2,2,2,2
2025-09-03 13:06:34.153,4324241,1320632,1251691,988172,2,2,2,2
2025-09-03 13:06:34.153,6421443,1337067,1259899,988183,2,2,2,2
2025-09-03 13:06:34.153,2227309,1337131,3348986,988360,2,2,2,2
2025-09-03 13:06:34.154,6421714,3434377,1251895,988389,2,2,2,2
2025-09-03 13:06:34.154,4324354,1320948,1251968,988173,2,2,2,2
2025-09-03 13:06:34.154,2227299,1337106,3349217,988274,2,2,2,2
2025-09-03 13:06:34.154,6421704,1337206,1251847,988307,2,2,2,2
2025-09-03 13:06:34.155,2227432,1337236,1251941,988398,2,2,2,2
2025-09-03 13:06:34.155,6421750,1337241,1251888,988400,2,2,2,2
2025-09-03 13:06:34.155,6421771,1337319,1251903,988407,2,2,2,2
2025-09-03 13:06:34.156,2227485,1337333,1251981,988415,2,2,2,2
2025-09-03 13:06:34.156,4324735,1321009,1252075,988441,2,2,2,2
2025-09-03 13:06:34.156,6421900,1337371,1252088,988449,2,2,2,2
2025-09-03 13:06:34.157,6421985,1337452,1252105,988528,2,2,2,2
2025-09-03 13:06:34.157,2227705,1337540,1252194,988545,2,2,2,2
2025-09-03 13:06:34.157,6421779,3434645,1252212,988559,2,2,2,2
2025-09-03 13:06:34.157,6421802,3434727,1252229,988573,2,2,2,2
2025-09-03 13:06:34.158,4324732,1321206,1252240,996839,2,2,2,2
2025-09-03 13:06:34.158,6421947,1337357,1260520,988670,2,2,2,2
2025-09-03 13:06:34.158,6421994,1337373,1252347,988428,2,2,2,2
2025-09-03 13:06:34.158,2227690,1337375,3349249,988428,2,2,2,2
2025-09-03 13:06:34.159,6422016,3434605,1252144,988444,2,2,2,2
2025-09-03 13:06:34.159,6422050,1337481,1252141,988536,2,2,2,2
2025-09-03 13:06:34.159,6422135,1329309,1252298,988556,2,2,2,2
2025-09-03 13:06:34.159,6422135,1337501,1252239,988554,2,2,2,2
2025-09-03 13:06:34.160,2227857,1337580,1252255,988620,2,2,2,2
2025-09-03 13:06:34.160,6422231,1337589,1252328,988560,2,2,2,2
2025-09-03 13:06:34.160,4325016,1321208,1252331,988562,2,2,2,2
2025-09-03 13:06:34.161,6422206,1337594,1252334,988627,2,2,2,2
2025-09-03 13:06:34.161,6422257,1329419,1252349,988641,2,2,2,2
2025-09-03 13:06:34.161,6422021,1321244,1252368,996848,2,2,2,2
2025-09-03 13:06:34.161,2227735,1337707,1252383,988666,2,2,2,2
2025-09-03 13:06:34.162,6422113,1337715,1252391,988674,2,2,2,2
2025-09-03 13:06:34.162,6422137,1329546,1252413,988698,2,2,2,2
2025-09-03 13:06:34.163,2227992,1337628,1252369,988901,2,2,2,2
2025-09-03 13:06:34.163,6422389,1337717,1260653,988924,2,2,2,2
2025-09-03 13:06:34.163,2228116,1337805,1252490,988725,2,2,2,2
2025-09-03 13:06:34.163,2228199,1337822,3349661,988742,2,2,2,2
2025-09-03 13:06:34.164,6422519,1337833,1252553,988781,2,2,2,2
2025-09-03 13:06:34.164,6422285,3435000,1252604,988793,2,2,2,2
2025-09-03 13:06:34.164,6422302,1337862,1252618,988804,2,2,2,2
2025-09-03 13:06:34.164,6422349,1337878,1260822,988878,2,2,2,2
2025-09-03 13:06:34.165,6422392,1329760,1252638,988820,2,2,2,2
2025-09-03 13:06:34.165,6422467,3435038,1252677,988821,2,2,2,2
2025-09-03 13:06:34.165,4325275,1321585,1252734,997096,2,2,2,2
2025-09-03 13:06:34.166,6422525,1338000,1261024,988931,2,2,2,2
2025-09-03 13:06:34.166,6422550,1338086,1252852,988948,2,2,2,2
2025-09-03 13:06:34.166,2228358,1337875,1252638,988991,2,2,2,2
2025-09-03 13:06:34.167,6422740,1337885,1252650,989062,2,2,2,2
2025-09-03 13:06:34.167,6422757,1337961,1252663,989075,2,2,2,2
2025-09-03 13:06:34.167,6422778,1337978,1252744,989155,2,2,2,2
2025-09-03 13:06:34.168,2228322,1338078,1252834,989179,2,2,2,2
2025-09-03 13:06:34.168,6422648,1338105,1252858,988941,2,2,2,2
2025-09-03 13:06:34.168,2228358,1338119,1252872,988982,2,2,2,2
2025-09-03 13:06:34.168,6422673,1329938,1252876,988956,2,2,2,2
2025-09-03 13:06:34.169,6422772,3435374,1252942,989045,2,2,2,2
2025-09-03 13:06:34.169,6422793,1338241,1261186,989124,2,2,2,2
2025-09-03 13:06:34.169,6422882,1338257,1253080,989078,2,2,2,2
2025-09-03 13:06:34.170,6422911,1330153,1253107,989166,2,2,2,2
2025-09-03 13:06:34.170,2228626,1338362,3350019,989176,2,2,2,2
2025-09-03 13:06:34.170,6422991,1338362,1252870,989175,2,2,2,2
2025-09-03 13:06:34.170,6422932,1321982,1252873,997371,2,2,2,2
2025-09-03 13:06:34.171,4325785,1321978,1252873,989178,2,2,2,2
2025-09-03 13:06:34.171,6422984,1338116,1252884,989185,2,2,2,2
2025-09-03 13:06:34.171,2228483,1338141,1252974,989207,2,2,2,2
2025-09-03 13:06:34.171,2228578,1338170,1253001,989231,2,2,2,2
2025-09-03 13:06:34.172,6422837,3435405,1253084,989312,2,2,2,2
2025-09-03 13:06:34.172,4325770,1321918,1253100,989325,2,2,2,2
2025-09-03 13:06:34.172,2228719,1338368,3350289,989388,2,2,2,2
2025-09-03 13:06:34.172,6423049,1330198,1253158,989184,2,2,2,2
2025-09-03 13:06:34.173,2228834,1338393,1253242,989198,2,2,2,2
2025-09-03 13:06:34.173,6423164,1338481,1261461,989221,2,2,2,2
2025-09-03 13:06:34.173,2228895,1338572,1253361,989313,2,2,2,2
2025-09-03 13:06:34.174,2228745,1338612,3350295,989382,2,2,2,2
2025-09-03 13:06:34.174,6423081,1338389,1253233,989438,2,2,2,2
2025-09-03 13:06:34.174,4326020,1322058,1253255,997648,2,2,2,2
2025-09-03 13:06:34.174,6423261,1338489,1253338,989471,2,2,2,2
2025-09-03 13:06:34.175,6423275,1338502,1253355,989546,2,2,2,2
2025-09-03 13:06:34.175,2228985,1338581,3350524,989560,2,2,2,2
2025-09-03 13:06:34.175,2229000,1338599,1269773,989636,2,2,2,2
2025-09-03 13:06:34.175,6423407,1322251,1269873,997861,2,2,2,2
2025-09-03 13:06:34.176,4326299,1322352,1269914,989450,2,2,2,2
2025-09-03 13:06:34.176,6423297,1338772,1261569,989484,2,2,2,2
2025-09-03 13:06:34.176,2229022,1338859,3366940,989572,2,2,2,2
2025-09-03 13:06:34.176,6423489,1338629,1253494,989597,2,2,2,2
2025-09-03 13:06:34.177,6423525,3435876,1253557,989691,2,2,2,2
2025-09-03 13:06:34.177,4326409,1322370,1270003,997906,2,2,2,2
2025-09-03 13:06:34.177,6423612,1338772,1253637,989792,2,2,2,2
2025-09-03 13:06:34.177,6423659,1330656,1270035,989803,2,2,2,2
2025-09-03 13:06:34.178,2229493,1338915,1270165,989930,2,2,2,2
2025-09-03 13:06:34.178,6423573,1339009,1262067,989698,2,2,2,2
2025-09-03 13:06:34.178,4326510,1322706,1270027,989713,2,2,2,2
2025-09-03 13:06:34.179,2229381,1339107,1270047,989757,2,2,2,2
2025-09-03 13:06:34.179,6423777,1339129,1253752,989813,2,2,2,2
2025-09-03 13:06:34.179,6423795,1322506,1270151,998019,2,2,2,2
2025-09-03 13:06:34.179,6423790,1338880,1270145,989754,2,2,2,2
2025-09-03 13:06:34.180,6423784,1339130,1270078,989813,2,2,2,2
2025-09-03 13:06:34.180,2229498,1338895,1270163,989830,2,2,2,2
2025-09-03 13:06:34.180,6423834,1338989,1253872,989921,2,2,2,2
2025-09-03 13:06:34.181,4326787,1322673,1270287,998140,2,2,2,2
2025-09-03 13:06:34.181,6423990,1339106,1262109,989961,2,2,2,2
2025-09-03 13:06:34.181,2229736,1339119,1270380,989970,2,2,2,2
2025-09-03 13:06:34.181,2229749,1339131,3367544,990012,2,2,2,2
2025-09-03 13:06:34.182,6423824,3436304,1254064,990067,2,2,2,2
2025-09-03 13:06:34.182,6423924,1322829,1270514,998286,2,2,2,2
2025-09-03 13:06:34.182,6423944,1339264,1253892,990109,2,2,2,2
2025-09-03 13:06:34.182,6424002,1339288,1253913,990190,2,2,2,2
2025-09-03 13:06:34.183,2229785,1339139,1270403,989972,2,2,2,2
2025-09-03 13:06:34.183,6424167,1339145,1270475,989981,2,2,2,2
2025-09-03 13:06:34.183,6424179,1339153,1270488,990049,2,2,2,2
2025-09-03 13:06:34.184,2229880,1339160,1270428,990048,2,2,2,2
2025-09-03 13:06:34.184,6424177,1330961,1270485,989969,2,2,2,2
2025-09-03 13:06:34.184,6424176,1322805,1270423,998155,2,2,2,2
2025-09-03 13:06:34.184,2229879,1339159,1270430,989963,2,2,2,2
2025-09-03 13:06:34.185,6424267,1339239,1270511,989978,2,2,2,2
2025-09-03 13:06:34.185,2229988,1339195,1270533,990062,2,2,2,2
2025-09-03 13:06:34.185,6424301,3436418,1254158,990069,2,2,2,2
2025-09-03 13:06:34.185,6424313,1339275,1254196,990077,2,2,2,2
2025-09-03 13:06:34.186,6424316,1322890,1270548,998268,2,2,2,2
2025-09-03 13:06:34.186,6424316,1339267,1262345,990008,2,2,2,2
2025-09-03 13:06:34.186,2229784,1339357,3367710,990093,2,2,2,2
2025-09-03 13:06:34.186,2229892,1339399,1270665,990159,2,2,2,2
2025-09-03 13:06:34.187,6424288,1339491,1254337,990215,2,2,2,2
2025-09-03 13:06:34.187,6424310,1323123,1270769,998418,2,2,2,2
2025-09-03 13:06:34.187,6424333,1339524,1270528,990238,2,2,2,2
2025-09-03 13:06:34.187,6424330,1339519,1262589,990231,2,2,2,2
2025-09-03 13:06:34.188,6424335,1339520,1270529,990235,2,2,2,2
2025-09-03 13:06:34.188,2230121,1339606,3367708,990253,2,2,2,2
2025-09-03 13:06:34.188,6424518,3436788,1254200,990346,2,2,2,2
2025-09-03 13:06:34.188,6424561,1339488,1270752,990448,2,2,2,2
2025-09-03 13:06:34.189,6424324,1339503,1262580,990461,2,2,2,2
2025-09-03 13:06:34.189,6424326,1339503,1270775,990460,2,2,2,2
2025-09-03 13:06:34.189,2230125,1339598,1270809,990234,2,2,2,2
2025-09-03 13:06:34.190,6424378,1339545,1270821,990306,2,2,2,2
2025-09-03 13:06:34.190,4327299,1323229,1270892,990310,2,2,2,2
2025-09-03 13:06:34.190,6424471,1339626,1270845,990327,2,2,2,2
2025-09-03 13:06:34.190,6424552,1339637,1254538,990340,2,2,2,2
2025-09-03 13:06:34.191,6424562,1323254,1270926,998532,2,2,2,2
2025-09-03 13:06:34.191,6424583,1339658,1270943,990416,2,2,2,2
2025-09-03 13:06:34.191,2230286,1339668,1271014,990358,2,2,2,2
2025-09-03 13:06:34.191,2230291,1339671,1271016,990390,2,2,2,2
2025-09-03 13:06:34.192,6424604,1339678,1254637,990356,2,2,2,2
2025-09-03 13:06:34.192,6424616,3436905,1254649,990362,2,2,2,2
2025-09-03 13:06:34.192,6424631,1339765,1270790,990433,2,2,2,2
2025-09-03 13:06:34.192,6424711,1339776,1262608,990438,2,2,2,2
2025-09-03 13:06:34.193,6424722,1339785,1270808,990440,2,2,2,2
2025-09-03 13:06:34.193,2230425,1339848,3367959,990408,2,2,2,2
2025-09-03 13:06:34.193,6424802,3436940,1254463,990445,2,2,2,2
2025-09-03 13:06:34.193,6424805,3436944,1254437,990448,2,2,2,2
2025-09-03 13:06:34.194,6424800,1339784,1262688,990442,2,2,2,2
2025-09-03 13:06:34.194,6424762,1339785,1254426,990439,2,2,2,2
2025-09-03 13:06:34.194,2230523,1339867,1270897,990457,2,2,2,2
2025-09-03 13:06:34.195,6424587,3437034,1254597,990470,2,2,2,2
2025-09-03 13:06:34.195,6424601,1339893,1270994,990478,2,2,2,2
2025-09-03 13:06:34.195,6424616,1339902,1254625,990484,2,2,2,2
2025-09-03 13:06:34.195,6424772,1339665,1254644,990565,2,2,2,2
2025-09-03 13:06:34.196,6424836,1323401,1271150,998812,2,2,2,2
2025-09-03 13:06:34.196,6424938,1339881,1271251,990717,2,2,2,2
2025-09-03 13:06:34.196,2230649,1339895,1271270,990473,2,2,2,2
2025-09-03 13:06:34.197,6425036,1339912,1254906,990490,2,2,2,2
2025-09-03 13:06:34.197,6425063,1340006,1254712,990578,2,2,2,2
2025-09-03 13:06:34.197,6424847,1340041,1262970,990668,2,2,2,2
2025-09-03 13:06:34.197,6424944,1340129,1262998,990693,2,2,2,2
2025-09-03 13:06:34.198,6424978,1340155,1271282,990715,2,2,2,2
2025-09-03 13:06:34.198,6425077,1339929,1271320,990743,2,2,2,2
2025-09-03 13:06:34.198,6425110,3437178,1254972,990836,2,2,2,2
2025-09-03 13:06:34.198,2230885,1340044,1271436,990913,2,2,2,2
2025-09-03 13:06:34.199,4328066,1323720,1271527,990874,2,2,2,2
2025-09-03 13:06:34.199,6425294,1340179,1263117,990721,2,2,2,2
2025-09-03 13:06:34.199,2230795,1340198,3368548,990740,2,2,2,2
2025-09-03 13:06:34.199,2230890,1340222,3368574,990763,2,2,2,2
2025-09-03 13:06:34.200,6425282,3437463,1255093,990846,2,2,2,2
2025-09-03 13:06:34.200,6425310,1340405,1271538,990871,2,2,2,2
2025-09-03 13:06:34.200,6425348,1340182,1271571,990968,2,2,2,2
2025-09-03 13:06:34.200,6425450,1340286,1271613,991005,2,2,2,2
2025-09-03 13:06:34.201,2231162,1340358,1271688,991016,2,2,2,2
2025-09-03 13:06:34.201,6425522,1340313,1263512,991034,2,2,2,2
2025-09-03 13:06:34.201,4328429,1324016,1271790,991119,2,2,2,2
2025-09-03 13:06:34.202,6425346,1340417,1255168,991134,2,2,2,2
2025-09-03 13:06:34.202,6425378,1340444,1255193,991222,2,2,2,2
2025-09-03 13:06:34.202,6425441,1324090,1271570,999405,2,2,2,2
2025-09-03 13:06:34.202,6425369,1340431,1271564,991198,2,2,2,2
2025-09-03 13:06:34.203,6425362,1340420,1271566,991127,2,2,2,2
2025-09-03 13:06:34.203,2231059,1340421,1271571,991157,2,2,2,2
2025-09-03 13:06:34.203,2231063,1340422,1271575,991187,2,2,2,2
2025-09-03 13:06:34.204,6425449,1324080,1271583,999321,2,2,2,2
2025-09-03 13:06:34.204,6425481,1340518,1263481,991219,2,2,2,2
2025-09-03 13:06:34.204,2231270,1340472,1271695,990984,2,2,2,2
2025-09-03 13:06:34.204,2231299,1340615,3368929,991032,2,2,2,2
2025-09-03 13:06:34.205,2231327,1340637,1271799,991024,2,2,2,2
2025-09-03 13:06:34.205,6425647,3437809,1255430,991107,2,2,2,2
2025-09-03 13:06:34.205,6425730,1340670,1271826,991118,2,2,2,2
2025-09-03 13:06:34.205,6425754,1340435,1271847,991134,2,2,2,2
2025-09-03 13:06:34.206,2231539,1340455,1271940,991206,2,2,2,2
2025-09-03 13:06:34.206,6425603,1340532,1271956,991220,2,2,2,2
2025-09-03 13:06:34.206,4328473,1324167,1272038,991235,2,2,2,2
2025-09-03 13:06:34.207,2231399,1340624,1272047,991243,2,2,2,2
2025-09-03 13:06:34.207,6425662,1340647,1255426,1007712,2,2,2,2
2025-09-03 13:06:34.207,2231450,1340675,3368989,991285,2,2,2,2
2025-09-03 13:06:34.207,2231542,1340702,1271927,1007819,2,2,2,2
2025-09-03 13:06:34.208,6425886,1340799,1272022,1007850,2,2,2,2
2025-09-03 13:06:34.208,2231676,1340892,1272052,991235,2,2,2,2
2025-09-03 13:06:34.208,6426055,1340903,1255680,1007627,2,2,2,2
2025-09-03 13:06:34.208,6425997,1324521,1272066,999437,2,2,2,2
2025-09-03 13:06:34.209,6426013,1324532,1272078,999447,2,2,2,2
2025-09-03 13:06:34.209,6426085,1340926,1263896,1007643,2,2,2,2
2025-09-03 13:06:34.209,6426096,1340679,1272102,1007717,2,2,2,2
2025-09-03 13:06:34.209,2231563,1340700,1272186,991352,2,2,2,2
2025-09-03 13:06:34.210,2231659,1340724,3369364,991440,2,2,2,2
2025-09-03 13:06:34.210,6426049,3437961,1255881,1007845,2,2,2,2
2025-09-03 13:06:34.210,6426041,1340830,1264125,1007863,2,2,2,2
2025-09-03 13:06:34.210,6426061,1340912,1263886,1007872,2,2,2,2
2025-09-03 13:06:34.211,6426121,1340938,1272101,1007892,2,2,2,2
2025-09-03 13:06:34.211,2231908,1340960,3369338,991527,2,2,2,2
2025-09-03 13:06:34.211,6426159,1341027,1272260,1007981,2,2,2,2
2025-09-03 13:06:34.211,4329081,1324622,1272209,999798,2,2,2,2
2025-09-03 13:06:34.212,4329086,1324592,1272212,991605,2,2,2,2
2025-09-03 13:06:34.212,6426317,1341050,1255839,1007994,2,2,2,2
2025-09-03 13:06:34.212,2232037,1341134,1272305,1008077,2,2,2,2
2025-09-03 13:06:34.212,2231812,1341158,1272336,1008101,2,2,2,2
2025-09-03 13:06:34.213,6426123,1341163,1272345,1008102,2,2,2,2
2025-09-03 13:06:34.213,4328970,1324774,1272343,991712,2,2,2,2
2025-09-03 13:06:34.213,6426130,1341153,1255989,1008031,2,2,2,2
2025-09-03 13:06:34.214,6426238,1324553,1272440,999684,2,2,2,2
2025-09-03 13:06:34.214,6426269,1341035,1272468,1007902,2,2,2,2
2025-09-03 13:06:34.214,2232049,1340985,1272544,991559,2,2,2,2
2025-09-03 13:06:34.214,2232069,1341129,1272565,991607,2,2,2,2
2025-09-03 13:06:34.215,6426400,1341086,1255950,1008012,2,2,2,2
2025-09-03 13:06:34.215,6426520,1341190,1272381,1008120,2,2,2,2
2025-09-03 13:06:34.215,6426372,1341292,1264361,1008158,2,2,2,2
2025-09-03 13:06:34.216,6426475,1341325,1272587,1008255,2,2,2,2
2025-09-03 13:06:34.216,2232204,1341411,3369831,991929,2,2,2,2
2025-09-03 13:06:34.216,6426596,3438584,1256316,1008358,2,2,2,2
2025-09-03 13:06:34.216,6426609,3438590,1256388,1008359,2,2,2,2
2025-09-03 13:06:34.217,6426632,1341202,1264534,1008378,2,2,2,2
2025-09-03 13:06:34.217,6426720,1341287,1272811,1008141,2,2,2,2
2025-09-03 13:06:34.217,2240625,1341245,1272578,991772,2,2,2,2
2025-09-03 13:06:34.218,6426672,3438457,1256192,1008149,2,2,2,2
2025-09-03 13:06:34.218,4329592,1324932,1272586,991773,2,2,2,2
2025-09-03 13:06:34.218,6426761,1341331,1272604,1008229,2,2,2,2
2025-09-03 13:06:34.218,6426867,1341429,1256322,1008262,2,2,2,2
2025-09-03 13:06:34.219,2232434,1341546,1272831,1008377,2,2,2,2
2025-09-03 13:06:34.219,4329606,1325110,1272846,992004,2,2,2,2
2025-09-03 13:06:34.219,2232555,1341650,1272941,992031,2,2,2,2
2025-09-03 13:06:34.220,6426891,1341681,1256591,1008508,2,2,2,2
2025-09-03 13:06:34.220,6427088,3438710,1256457,1008625,2,2,2,2
2025-09-03 13:06:34.220,6427118,1341591,1264745,1008400,2,2,2,2
2025-09-03 13:06:34.221,6426901,1341690,1273041,1008498,2,2,2,2
2025-09-03 13:06:34.221,2232687,1341719,1273068,992131,2,2,2,2
2025-09-03 13:06:34.221,2240897,1341736,3370237,992212,2,2,2,2
2025-09-03 13:06:34.221,6427024,1325428,1273099,1000418,2,2,2,2
2025-09-03 13:06:34.222,6427105,1341826,1273118,1008621,2,2,2,2
2025-09-03 13:06:34.222,6427132,1341854,1265016,1008647,2,2,2,2
2025-09-03 13:06:34.222,6427153,1341937,1273290,1008663,2,2,2,2
2025-09-03 13:06:34.222,2241122,1341699,3370389,992289,2,2,2,2
2025-09-03 13:06:34.223,6427180,3438860,1256891,1008671,2,2,2,2
2025-09-03 13:06:34.223,6427332,1341725,1273322,1008749,2,2,2,2
2025-09-03 13:06:34.223,6427315,1341797,1265140,1008691,2,2,2,2
2025-09-03 13:06:34.223,6427272,1341719,1273321,1008739,2,2,2,2
2025-09-03 13:06:34.224,2241153,1341709,3370466,992314,2,2,2,2
2025-09-03 13:06:34.224,2241146,1341702,1273313,1008656,2,2,2,2
2025-09-03 13:06:34.224,4330102,1325314,1273246,992267,2,2,2,2
2025-09-03 13:06:34.224,4330116,1325322,1273320,992274,2,2,2,2
2025-09-03 13:06:34.225,6427321,1341723,1256954,1008742,2,2,2,2
2025-09-03 13:06:34.225,6427363,1341794,1256706,1008748,2,2,2,2
2025-09-03 13:06:34.225,6427375,1341799,1273100,1008692,2,2,2,2
2025-09-03 13:06:34.225,6427384,1341802,1273102,1008694,2,2,2,2
2025-09-03 13:06:34.226,6427141,1341810,1273106,1008764,2,2,2,2
2025-09-03 13:06:34.226,2232857,1341888,1273186,992394,2,2,2,2
2025-09-03 13:06:34.226,6427181,3438987,1256818,1008787,2,2,2,2
2025-09-03 13:06:34.227,2232989,1341943,1273237,1008890,2,2,2,2
2025-09-03 13:06:34.227,6427333,1341954,1265120,1008640,2,2,2,2
2025-09-03 13:06:34.227,2233059,1341959,3370472,992509,2,2,2,2
2025-09-03 13:06:34.227,2233087,1341981,3370498,992307,2,2,2,2
2025-09-03 13:06:34.228,6427427,1342080,1257029,1008756,2,2,2,2
2025-09-03 13:06:34.228,6427584,3439256,1257022,1008776,2,2,2,2
2025-09-03 13:06:34.228,6427570,1342184,1257105,1008784,2,2,2,2
2025-09-03 13:06:34.228,6427616,1342196,1273566,1008791,2,2,2,2
2025-09-03 13:06:34.229,2233330,1342205,3370732,992444,2,2,2,2
2025-09-03 13:06:34.229,2241282,1341957,3370742,992482,2,2,2,2
2025-09-03 13:06:34.229,6427406,1341966,1265405,1008869,2,2,2,2
2025-09-03 13:06:34.229,4330343,1325636,1273363,992500,2,2,2,2
2025-09-03 13:06:34.230,6427525,1342082,1265264,1008908,2,2,2,2
2025-09-03 13:06:34.230,6427624,1342176,1257102,1008998,2,2,2,2
2025-09-03 13:06:34.230,2241530,1342194,1273502,1008950,2,2,2,2
2025-09-03 13:06:34.230,6427649,3439349,1257156,1009015,2,2,2,2
2025-09-03 13:06:34.231,4330512,1325823,1273585,1000829,2,2,2,2
2025-09-03 13:06:34.231,2233441,1342221,1273598,992648,2,2,2,2
2025-09-03 13:06:34.231,6427852,1342321,1257314,1009130,2,2,2,2
2025-09-03 13:06:34.232,2233451,1342222,1273850,1009093,2,2,2,2
2025-09-03 13:06:34.232,6427783,1342308,1265429,1009111,2,2,2,2
2025-09-03 13:06:34.232,2233499,1342258,1273699,992737,2,2,2,2
2025-09-03 13:06:34.232,6427901,1342354,1257347,1009146,2,2,2,2
2025-09-03 13:06:34.233,6427932,1342448,1257406,1009174,2,2,2,2
2025-09-03 13:06:34.233,6428024,1326087,1273849,1001071,2,2,2,2
2025-09-03 13:06:34.233,6428113,1342490,1273875,1009283,2,2,2,2
2025-09-03 13:06:34.233,6428132,1342568,1273890,1009298,2,2,2,2
2025-09-03 13:06:34.234,6428151,1342585,1273909,1009378,2,2,2,2
2025-09-03 13:06:34.234,2241801,1342663,3371139,992975,2,2,2,2
2025-09-03 13:06:34.234,2233624,1342612,1274005,1009405,2,2,2,2
2025-09-03 13:06:34.234,6428003,1342689,1274084,1009159,2,2,2,2
2025-09-03 13:06:34.235,6428029,1342713,1273856,1009180,2,2,2,2
2025-09-03 13:06:34.235,6428049,1342471,1273874,1009263,2,2,2,2
2025-09-03 13:06:34.235,6428158,3439716,1257550,1009285,2,2,2,2
2025-09-03 13:06:34.236,6428174,1342579,1257529,1009298,2,2,2,2
2025-09-03 13:06:34.236,4331017,1326127,1273969,992904,2,2,2,2
2025-09-03 13:06:34.236,6428209,1342578,1257589,1009290,2,2,2,2
2025-09-03 13:06:34.237,6428295,1326311,1274086,1001204,2,2,2,2
2025-09-03 13:06:34.237,6428377,3439858,1257715,1009409,2,2,2,2
2025-09-03 13:06:34.237,4331164,1326323,1274097,993024,2,2,2,2
2025-09-03 13:06:34.237,6428358,1342712,1257722,1009412,2,2,2,2
2025-09-03 13:06:34.238,6428398,1342709,1257728,1009408,2,2,2,2
2025-09-03 13:06:34.238,6428415,1342717,1274124,1009409,2,2,2,2
2025-09-03 13:06:34.238,6428185,1342735,1274143,1009432,2,2,2,2
2025-09-03 13:06:34.239,6428284,1342832,1274308,1009527,2,2,2,2
2025-09-03 13:06:34.239,2234090,1342942,3371505,993219,2,2,2,2
2025-09-03 13:06:34.239,6428433,1326338,1274130,1001218,2,2,2,2
2025-09-03 13:06:34.239,2234210,1342737,1274142,1009422,2,2,2,2
2025-09-03 13:06:34.240,6428543,1342826,1274228,1009448,2,2,2,2
2025-09-03 13:06:34.240,6428562,1342842,1274309,1009529,2,2,2,2
2025-09-03 13:06:34.240,6428648,1342858,1257917,1009547,2,2,2,2
2025-09-03 13:06:34.240,6428658,1342866,1257928,1009551,2,2,2,2
2025-09-03 13:06:34.241,6428659,3440016,1257956,1009550,2,2,2,2
2025-09-03 13:06:34.241,4331509,1326514,1274341,993161,2,2,2,2
2025-09-03 13:06:34.241,6428664,1342865,1274344,1009545,2,2,2,2
2025-09-03 13:06:34.241,6428416,1342873,1274347,1009552,2,2,2,2
2025-09-03 13:06:34.242,2242330,1342962,3371519,993250,2,2,2,2
2025-09-03 13:06:34.242,6428463,3440137,1258035,1009652,2,2,2,2
2025-09-03 13:06:34.242,2234241,1342995,1274467,993280,2,2,2,2
2025-09-03 13:06:34.242,2234267,1343013,1274491,993292,2,2,2,2
2025-09-03 13:06:34.243,6428662,1343105,1258137,1009760,2,2,2,2
2025-09-03 13:06:34.243,6428672,1343109,1274594,1009695,2,2,2,2
2025-09-03 13:06:34.243,6428689,1343126,1274609,1009768,2,2,2,2
2025-09-03 13:06:34.244,4331624,1326827,1274378,993405,2,2,2,2
2025-09-03 13:06:34.244,6428866,1342976,1258080,1009811,2,2,2,2
2025-09-03 13:06:34.244,2242718,1343001,1274489,1009898,2,2,2,2
2025-09-03 13:06:34.244,6428915,1326700,1274508,1001721,2,2,2,2
2025-09-03 13:06:34.245,6428674,1343097,1274526,1009670,2,2,2,2
2025-09-03 13:06:34.245,6428694,1343113,1274611,1009682,2,2,2,2
2025-09-03 13:06:34.245,6428870,1343217,1258271,1009786,2,2,2,2
2025-09-03 13:06:34.246,6428899,1326855,1274743,1009807,2,2,2,2
2025-09-03 13:06:34.246,6428913,1343245,1274747,1009873,2,2,2,2
2025-09-03 13:06:34.246,6428879,1343238,1258358,1009866,2,2,2,2
2025-09-03 13:06:34.246,6428924,1343239,1274685,1009805,2,2,2,2
2025-09-03 13:06:34.247,2234645,1343252,3371916,993467,2,2,2,2
2025-09-03 13:06:34.247,6428982,3440495,1258439,1009907,2,2,2,2
2025-09-03 13:06:34.247,6429084,1343383,1274636,1009939,2,2,2,2
2025-09-03 13:06:34.247,4331780,1326849,1274740,993655,2,2,2,2
2025-09-03 13:06:34.248,6428956,1343260,1274832,1010064,2,2,2,2
2025-09-03 13:06:34.248,2234733,1343274,3371934,993724,2,2,2,2
2025-09-03 13:06:34.248,6429067,1326981,1274872,1001970,2,2,2,2
2025-09-03 13:06:34.248,6429176,3440619,1258531,1009945,2,2,2,2
2025-09-03 13:06:34.249,4332055,1359878,1275004,993651,2,2,2,2
2025-09-03 13:06:34.249,6429263,1343517,1258642,1010118,2,2,2,2
2025-09-03 13:06:34.249,6429239,1343590,1258646,1010059,2,2,2,2
2025-09-03 13:06:34.249,2243216,1343550,3372273,993758,2,2,2,2
2025-09-03 13:06:34.250,6429424,3440797,1258517,1010174,2,2,2,2
2025-09-03 13:06:34.250,6429204,1343739,1274928,1010203,2,2,2,2
2025-09-03 13:06:34.250,6429297,1343508,1275082,1010293,2,2,2,2
